time,channel1,channel2,channel3,channel4,channel5,channel6,channel7,channel8,class
26959.0,0.00015,0.00016,8e-05,6e-05,5e-05,1e-05,0.00012,0.00011,6.0
26960.0,0.00016,0.00022,-1e-05,-7e-05,-0.00024,-0.00038,-0.00024,-0.00031,6.0
26961.0,0.00016,0.00022,-1e-05,-7e-05,-0.00024,-0.00038,-0.00024,-0.00031,6.0
26962.0,0.00016,0.00022,-1e-05,-7e-05,-0.00024,-0.00038,-0.00024,-0.00031,6.0
26963.0,0.00016,0.00022,-1e-05,-7e-05,-0.00024,-0.00038,-0.00024,-0.00031,6.0
26964.0,0.00016,0.00022,-1e-05,-7e-05,-0.00024,-0.00038,-0.00024,-0.00031,6.0
26965.0,0.00016,0.00022,-1e-05,-7e-05,-0.00024,-0.00038,-0.00024,-0.00031,6.0
26966.0,0.00016,0.00022,-1e-05,-7e-05,-0.00024,-0.00038,-0.00024,-0.00031,6.0
26967.0,0.00016,0.00022,-1e-05,-7e-05,-0.00024,-0.00038,-0.00024,-0.00031,6.0
26968.0,0.00016,0.00022,-1e-05,-7e-05,-0.00024,-0.00038,-0.00024,-0.00031,6.0
26969.0,0.00016,0.00022,-1e-05,-7e-05,-0.00024,-0.00038,-0.00024,-0.00031,6.0
26970.0,0.00016,0.00022,-1e-05,-7e-05,-0.00024,-0.00038,-0.00024,-0.00031,6.0
26971.0,0.00016,0.00022,-1e-05,-7e-05,-0.00024,-0.00038,-0.00024,-0.00031,6.0
26972.0,0.00016,0.00022,-1e-05,-7e-05,-0.00024,-0.00038,-0.00024,-0.00031,6.0
26973.0,0.00016,0.00022,-1e-05,-7e-05,-0.00024,-0.00038,-0.00024,-0.00031,6.0
26974.0,0.00016,0.00022,-1e-05,-7e-05,-0.00024,-0.00038,-0.00024,-0.00031,6.0
26975.0,0.00016,0.00022,-1e-05,-7e-05,-0.00024,-0.00038,-0.00024,-0.00031,6.0
26976.0,0.00016,0.00022,-1e-05,-7e-05,-0.00024,-0.00038,-0.00024,-0.00031,6.0
26977.0,0.00016,0.00022,-1e-05,-7e-05,-0.00024,-0.00038,-0.00024,-0.00031,6.0
26978.0,0.00016,0.00022,-1e-05,-7e-05,-0.00024,-0.00038,-0.00024,-0.00031,6.0
26979.0,0.00016,0.00022,-1e-05,-7e-05,-0.00024,-0.00038,-0.00024,-0.00031,6.0
26980.0,0.00016,0.00022,-1e-05,-7e-05,-0.00024,-0.00038,-0.00024,-0.00031,6.0
26981.0,0.00016,0.00022,-1e-05,-7e-05,-0.00024,-0.00038,-0.00024,-0.00031,6.0
26982.0,0.00016,0.00022,-1e-05,-7e-05,-0.00024,-0.00038,-0.00024,-0.00031,6.0
26983.0,0.00016,0.00022,-1e-05,-7e-05,-0.00024,-0.00038,-0.00024,-0.00031,6.0
26984.0,0.00016,0.00022,-1e-05,-7e-05,-0.00024,-0.00038,-0.00024,-0.00031,6.0
26985.0,0.00016,0.00022,-1e-05,-7e-05,-0.00024,-0.00038,-0.00024,-0.00031,6.0
26986.0,0.00016,0.00022,-1e-05,-7e-05,-0.00024,-0.00038,-0.00024,-0.00031,6.0
26989.0,0.00016,0.00022,-1e-05,-7e-05,-0.00024,-0.00038,-0.00024,-0.00031,6.0
26990.0,0.00016,0.00022,-1e-05,-7e-05,-0.00024,-0.00038,-0.00024,-0.00031,6.0
26991.0,0.00016,0.00022,-1e-05,-7e-05,-0.00024,-0.00038,-0.00024,-0.00031,6.0
26992.0,0.00016,0.00022,-1e-05,-7e-05,-0.00024,-0.00038,-0.00024,-0.00031,6.0
26993.0,0.00016,0.00022,-1e-05,-7e-05,-0.00024,-0.00038,-0.00024,-0.00031,6.0
26994.0,0.00016,0.00022,-1e-05,-7e-05,-0.00024,-0.00038,-0.00024,-0.00031,6.0
26995.0,0.00016,0.00022,-1e-05,-7e-05,-0.00024,-0.00038,-0.00024,-0.00031,6.0
26996.0,0.00016,0.00022,-1e-05,-7e-05,-0.00024,-0.00038,-0.00024,-0.00031,6.0
26997.0,0.00016,0.00022,-1e-05,-7e-05,-0.00024,-0.00038,-0.00024,-0.00031,6.0
26998.0,0.00016,0.00022,-1e-05,-7e-05,-0.00024,-0.00038,-0.00024,-0.00031,6.0
26999.0,0.00016,0.00022,-1e-05,-7e-05,-0.00024,-0.00038,-0.00024,-0.00031,6.0
27000.0,0.00016,0.00022,-1e-05,-7e-05,-0.00024,-0.00038,-0.00024,-0.00031,6.0
27001.0,0.00016,0.00022,-1e-05,-7e-05,-0.00024,-0.00038,-0.00024,-0.00031,6.0
27002.0,0.00016,0.00022,-1e-05,-7e-05,-0.00024,-0.00038,-0.00024,-0.00031,6.0
27003.0,0.00016,0.00022,-1e-05,-7e-05,-0.00024,-0.00038,-0.00024,-0.00031,6.0
27004.0,0.00016,0.00022,-1e-05,-7e-05,-0.00024,-0.00038,-0.00024,-0.00031,6.0
27005.0,0.00016,0.00022,-1e-05,-7e-05,-0.00024,-0.00038,-0.00024,-0.00031,6.0
27006.0,0.00016,0.00022,-1e-05,-7e-05,-0.00024,-0.00038,-0.00024,-0.00031,6.0
27007.0,0.00016,0.00022,-1e-05,-7e-05,-0.00024,-0.00038,-0.00024,-0.00031,6.0
27008.0,0.00016,0.00022,-1e-05,-7e-05,-0.00024,-0.00038,-0.00024,-0.00031,6.0
27009.0,0.00012,0.0001,0.0,0.0,-4e-05,-0.00026,-0.00026,0.00027,6.0
27010.0,0.00012,0.0001,0.0,0.0,-4e-05,-0.00026,-0.00026,0.00027,6.0
27011.0,0.00012,0.0001,0.0,0.0,-4e-05,-0.00026,-0.00026,0.00027,6.0
27012.0,0.00012,0.0001,0.0,0.0,-4e-05,-0.00026,-0.00026,0.00027,6.0
27013.0,0.00012,0.0001,0.0,0.0,-4e-05,-0.00026,-0.00026,0.00027,6.0
27014.0,0.00012,0.0001,0.0,0.0,-4e-05,-0.00026,-0.00026,0.00027,6.0
27015.0,0.00012,0.0001,0.0,0.0,-4e-05,-0.00026,-0.00026,0.00027,6.0
27016.0,0.00012,0.0001,0.0,0.0,-4e-05,-0.00026,-0.00026,0.00027,6.0
27017.0,0.00012,0.0001,0.0,0.0,-4e-05,-0.00026,-0.00026,0.00027,6.0
27018.0,0.00012,0.0001,0.0,0.0,-4e-05,-0.00026,-0.00026,0.00027,6.0
27019.0,0.00012,0.0001,0.0,0.0,-4e-05,-0.00026,-0.00026,0.00027,6.0
27020.0,0.00012,0.0001,0.0,0.0,-4e-05,-0.00026,-0.00026,0.00027,6.0
27021.0,0.00012,0.0001,0.0,0.0,-4e-05,-0.00026,-0.00026,0.00027,6.0
27022.0,0.00012,0.0001,0.0,0.0,-4e-05,-0.00026,-0.00026,0.00027,6.0
27023.0,0.00012,0.0001,0.0,0.0,-4e-05,-0.00026,-0.00026,0.00027,6.0
27024.0,0.00012,0.0001,0.0,0.0,-4e-05,-0.00026,-0.00026,0.00027,6.0
27025.0,0.00012,0.0001,0.0,0.0,-4e-05,-0.00026,-0.00026,0.00027,6.0
27026.0,0.00012,0.0001,0.0,0.0,-4e-05,-0.00026,-0.00026,0.00027,6.0
27027.0,0.00012,0.0001,0.0,0.0,-4e-05,-0.00026,-0.00026,0.00027,6.0
27028.0,0.00012,0.0001,0.0,0.0,-4e-05,-0.00026,-0.00026,0.00027,6.0
27029.0,0.00012,0.0001,0.0,0.0,-4e-05,-0.00026,-0.00026,0.00027,6.0
27030.0,0.00012,0.0001,0.0,0.0,-4e-05,-0.00026,-0.00026,0.00027,6.0
27031.0,0.00012,0.0001,0.0,0.0,-4e-05,-0.00026,-0.00026,0.00027,6.0
27032.0,0.00012,0.0001,0.0,0.0,-4e-05,-0.00026,-0.00026,0.00027,6.0
27033.0,0.00012,0.0001,0.0,0.0,-4e-05,-0.00026,-0.00026,0.00027,6.0
27034.0,0.00012,0.0001,0.0,0.0,-4e-05,-0.00026,-0.00026,0.00027,6.0
27035.0,0.00012,0.0001,0.0,0.0,-4e-05,-0.00026,-0.00026,0.00027,6.0
27036.0,0.00012,0.0001,0.0,0.0,-4e-05,-0.00026,-0.00026,0.00027,6.0
27039.0,0.00012,0.0001,0.0,0.0,-4e-05,-0.00026,-0.00026,0.00027,6.0
27040.0,0.00012,0.0001,0.0,0.0,-4e-05,-0.00026,-0.00026,0.00027,6.0
27041.0,0.00012,0.0001,0.0,0.0,-4e-05,-0.00026,-0.00026,0.00027,6.0
27042.0,0.00012,0.0001,0.0,0.0,-4e-05,-0.00026,-0.00026,0.00027,6.0
27043.0,0.00012,0.0001,0.0,0.0,-4e-05,-0.00026,-0.00026,0.00027,6.0
27044.0,0.00012,0.0001,0.0,0.0,-4e-05,-0.00026,-0.00026,0.00027,6.0
27045.0,0.00012,0.0001,0.0,0.0,-4e-05,-0.00026,-0.00026,0.00027,6.0
27046.0,0.00012,0.0001,0.0,0.0,-4e-05,-0.00026,-0.00026,0.00027,6.0
27047.0,0.00012,0.0001,0.0,0.0,-4e-05,-0.00026,-0.00026,0.00027,6.0
27048.0,0.00012,0.0001,0.0,0.0,-4e-05,-0.00026,-0.00026,0.00027,6.0
27049.0,0.00012,0.0001,0.0,0.0,-4e-05,-0.00026,-0.00026,0.00027,6.0
27050.0,0.00012,0.0001,0.0,0.0,-4e-05,-0.00026,-0.00026,0.00027,6.0
27051.0,0.00012,0.0001,0.0,0.0,-4e-05,-0.00026,-0.00026,0.00027,6.0
27052.0,0.00012,0.0001,0.0,0.0,-4e-05,-0.00026,-0.00026,0.00027,6.0
27053.0,0.00012,0.0001,0.0,0.0,-4e-05,-0.00026,-0.00026,0.00027,6.0
27054.0,0.00012,0.0001,0.0,0.0,-4e-05,-0.00026,-0.00026,0.00027,6.0
27055.0,0.00012,0.0001,0.0,0.0,-4e-05,-0.00026,-0.00026,0.00027,6.0
27056.0,0.00012,0.0001,0.0,0.0,-4e-05,-0.00026,-0.00026,0.00027,6.0
27057.0,0.00012,0.0001,0.0,0.0,-4e-05,-0.00026,-0.00026,0.00027,6.0
27058.0,0.00012,0.0001,0.0,0.0,-4e-05,-0.00026,-0.00026,0.00027,6.0
27059.0,0.00012,0.0001,0.0,0.0,-4e-05,-0.00026,-0.00026,0.00027,6.0
27060.0,0.00012,0.0001,0.0,0.0,-4e-05,-0.00026,-0.00026,0.00027,6.0
27061.0,0.00012,0.0001,0.0,0.0,-4e-05,-0.00026,-0.00026,0.00027,6.0
27062.0,0.00012,0.0001,0.0,0.0,-4e-05,-0.00026,-0.00026,0.00027,6.0
27063.0,8e-05,3e-05,-4e-05,-4e-05,-6e-05,-7e-05,-6e-05,0.0,6.0
27064.0,-0.00027,-0.00015,-2e-05,2e-05,0.0001,0.00015,-0.00011,1e-05,6.0
27065.0,-0.00027,-0.00015,-2e-05,2e-05,0.0001,0.00015,-0.00011,1e-05,6.0
27066.0,-0.00027,-0.00015,-2e-05,2e-05,0.0001,0.00015,-0.00011,1e-05,6.0
27067.0,-0.00027,-0.00015,-2e-05,2e-05,0.0001,0.00015,-0.00011,1e-05,6.0
27068.0,-0.00027,-0.00015,-2e-05,2e-05,0.0001,0.00015,-0.00011,1e-05,6.0
27069.0,-0.00027,-0.00015,-2e-05,2e-05,0.0001,0.00015,-0.00011,1e-05,6.0
27070.0,-0.00027,-0.00015,-2e-05,2e-05,0.0001,0.00015,-0.00011,1e-05,6.0
27071.0,-0.00027,-0.00015,-2e-05,2e-05,0.0001,0.00015,-0.00011,1e-05,6.0
27072.0,-0.00027,-0.00015,-2e-05,2e-05,0.0001,0.00015,-0.00011,1e-05,6.0
27073.0,-0.00027,-0.00015,-2e-05,2e-05,0.0001,0.00015,-0.00011,1e-05,6.0
27074.0,-0.00027,-0.00015,-2e-05,2e-05,0.0001,0.00015,-0.00011,1e-05,6.0
27075.0,-0.00027,-0.00015,-2e-05,2e-05,0.0001,0.00015,-0.00011,1e-05,6.0
27076.0,-0.00027,-0.00015,-2e-05,2e-05,0.0001,0.00015,-0.00011,1e-05,6.0
27077.0,-0.00027,-0.00015,-2e-05,2e-05,0.0001,0.00015,-0.00011,1e-05,6.0
27078.0,-0.00027,-0.00015,-2e-05,2e-05,0.0001,0.00015,-0.00011,1e-05,6.0
27079.0,-0.00027,-0.00015,-2e-05,2e-05,0.0001,0.00015,-0.00011,1e-05,6.0
27080.0,-0.00027,-0.00015,-2e-05,2e-05,0.0001,0.00015,-0.00011,1e-05,6.0
27081.0,-0.00027,-0.00015,-2e-05,2e-05,0.0001,0.00015,-0.00011,1e-05,6.0
27082.0,-0.00027,-0.00015,-2e-05,2e-05,0.0001,0.00015,-0.00011,1e-05,6.0
27083.0,-0.00027,-0.00015,-2e-05,2e-05,0.0001,0.00015,-0.00011,1e-05,6.0
27084.0,0.00015,7e-05,0.0,-1e-05,-1e-05,-2e-05,3e-05,-6e-05,6.0
27085.0,7e-05,0.0,-6e-05,-6e-05,0.0,8e-05,1e-05,0.00017,6.0
27086.0,1e-05,8e-05,9e-05,0.00012,0.0002,0.00028,9e-05,-1e-05,6.0
27089.0,5e-05,-1e-05,-5e-05,-1e-05,4e-05,0.0,-4e-05,0.00025,6.0
27090.0,5e-05,-1e-05,-5e-05,-1e-05,4e-05,0.0,-4e-05,0.00025,6.0
27091.0,5e-05,-1e-05,-5e-05,-1e-05,4e-05,0.0,-4e-05,0.00025,6.0
27092.0,5e-05,-1e-05,-5e-05,-1e-05,4e-05,0.0,-4e-05,0.00025,6.0
27093.0,5e-05,-1e-05,-5e-05,-1e-05,4e-05,0.0,-4e-05,0.00025,6.0
27094.0,5e-05,-1e-05,-5e-05,-1e-05,4e-05,0.0,-4e-05,0.00025,6.0
27095.0,5e-05,-1e-05,-5e-05,-1e-05,4e-05,0.0,-4e-05,0.00025,6.0
27096.0,5e-05,-1e-05,-5e-05,-1e-05,4e-05,0.0,-4e-05,0.00025,6.0
27097.0,5e-05,-1e-05,-5e-05,-1e-05,4e-05,0.0,-4e-05,0.00025,6.0
27098.0,5e-05,-1e-05,-5e-05,-1e-05,4e-05,0.0,-4e-05,0.00025,6.0
27099.0,5e-05,-1e-05,-5e-05,-1e-05,4e-05,0.0,-4e-05,0.00025,6.0
27100.0,5e-05,-1e-05,-5e-05,-1e-05,4e-05,0.0,-4e-05,0.00025,6.0
27101.0,5e-05,-1e-05,-5e-05,-1e-05,4e-05,0.0,-4e-05,0.00025,6.0
27102.0,5e-05,-1e-05,-5e-05,-1e-05,4e-05,0.0,-4e-05,0.00025,6.0
27103.0,5e-05,-1e-05,-5e-05,-1e-05,4e-05,0.0,-4e-05,0.00025,6.0
27104.0,5e-05,-1e-05,-5e-05,-1e-05,4e-05,0.0,-4e-05,0.00025,6.0
27105.0,5e-05,-1e-05,-5e-05,-1e-05,4e-05,0.0,-4e-05,0.00025,6.0
27106.0,5e-05,-1e-05,-5e-05,-1e-05,4e-05,0.0,-4e-05,0.00025,6.0
27107.0,5e-05,-1e-05,-5e-05,-1e-05,4e-05,0.0,-4e-05,0.00025,6.0
27108.0,5e-05,-1e-05,-5e-05,-1e-05,4e-05,0.0,-4e-05,0.00025,6.0
27109.0,5e-05,-1e-05,-5e-05,-1e-05,4e-05,0.0,-4e-05,0.00025,6.0
27110.0,5e-05,-1e-05,-5e-05,-1e-05,4e-05,0.0,-4e-05,0.00025,6.0
27111.0,5e-05,-1e-05,-5e-05,-1e-05,4e-05,0.0,-4e-05,0.00025,6.0
27112.0,5e-05,-1e-05,-5e-05,-1e-05,4e-05,0.0,-4e-05,0.00025,6.0
27113.0,5e-05,-1e-05,-5e-05,-1e-05,4e-05,0.0,-4e-05,0.00025,6.0
27114.0,5e-05,-1e-05,-5e-05,-1e-05,4e-05,0.0,-4e-05,0.00025,6.0
27115.0,5e-05,-1e-05,-5e-05,-1e-05,4e-05,0.0,-4e-05,0.00025,6.0
27116.0,5e-05,-1e-05,-5e-05,-1e-05,4e-05,0.0,-4e-05,0.00025,6.0
27117.0,5e-05,-1e-05,-5e-05,-1e-05,4e-05,0.0,-4e-05,0.00025,6.0
27118.0,5e-05,-1e-05,-5e-05,-1e-05,4e-05,0.0,-4e-05,0.00025,6.0
27119.0,5e-05,-1e-05,-5e-05,-1e-05,4e-05,0.0,-4e-05,0.00025,6.0
27120.0,5e-05,-1e-05,-5e-05,-1e-05,4e-05,0.0,-4e-05,0.00025,6.0
27121.0,5e-05,-1e-05,-5e-05,-1e-05,4e-05,0.0,-4e-05,0.00025,6.0
27122.0,5e-05,-1e-05,-5e-05,-1e-05,4e-05,0.0,-4e-05,0.00025,6.0
27123.0,5e-05,-1e-05,-5e-05,-1e-05,4e-05,0.0,-4e-05,0.00025,6.0
27124.0,5e-05,-1e-05,-5e-05,-1e-05,4e-05,0.0,-4e-05,0.00025,6.0
27125.0,5e-05,-1e-05,-5e-05,-1e-05,4e-05,0.0,-4e-05,0.00025,6.0
27126.0,5e-05,-1e-05,-5e-05,-1e-05,4e-05,0.0,-4e-05,0.00025,6.0
27127.0,5e-05,-1e-05,-5e-05,-1e-05,4e-05,0.0,-4e-05,0.00025,6.0
27128.0,5e-05,-1e-05,-5e-05,-1e-05,4e-05,0.0,-4e-05,0.00025,6.0
27129.0,5e-05,-1e-05,-5e-05,-1e-05,4e-05,0.0,-4e-05,0.00025,6.0
27130.0,5e-05,-1e-05,-5e-05,-1e-05,4e-05,0.0,-4e-05,0.00025,6.0
27131.0,5e-05,-1e-05,-5e-05,-1e-05,4e-05,0.0,-4e-05,0.00025,6.0
27132.0,5e-05,-1e-05,-5e-05,-1e-05,4e-05,0.0,-4e-05,0.00025,6.0
27133.0,5e-05,-1e-05,-5e-05,-1e-05,4e-05,0.0,-4e-05,0.00025,6.0
27134.0,5e-05,-1e-05,-5e-05,-1e-05,4e-05,0.0,-4e-05,0.00025,6.0
27135.0,5e-05,-1e-05,-5e-05,-1e-05,4e-05,0.0,-4e-05,0.00025,6.0
27136.0,3e-05,-6e-05,-0.0001,-7e-05,-3e-05,3e-05,0.00011,6e-05,6.0
27139.0,3e-05,-6e-05,-0.0001,-7e-05,-3e-05,3e-05,0.00011,6e-05,6.0
27140.0,3e-05,-6e-05,-0.0001,-7e-05,-3e-05,3e-05,0.00011,6e-05,6.0
27141.0,3e-05,-6e-05,-0.0001,-7e-05,-3e-05,3e-05,0.00011,6e-05,6.0
27142.0,3e-05,-6e-05,-0.0001,-7e-05,-3e-05,3e-05,0.00011,6e-05,6.0
27143.0,3e-05,-6e-05,-0.0001,-7e-05,-3e-05,3e-05,0.00011,6e-05,6.0
27144.0,3e-05,-6e-05,-0.0001,-7e-05,-3e-05,3e-05,0.00011,6e-05,6.0
27145.0,3e-05,-6e-05,-0.0001,-7e-05,-3e-05,3e-05,0.00011,6e-05,6.0
27146.0,3e-05,-6e-05,-0.0001,-7e-05,-3e-05,3e-05,0.00011,6e-05,6.0
27147.0,3e-05,-6e-05,-0.0001,-7e-05,-3e-05,3e-05,0.00011,6e-05,6.0
27148.0,3e-05,-6e-05,-0.0001,-7e-05,-3e-05,3e-05,0.00011,6e-05,6.0
27149.0,3e-05,-6e-05,-0.0001,-7e-05,-3e-05,3e-05,0.00011,6e-05,6.0
27150.0,3e-05,-6e-05,-0.0001,-7e-05,-3e-05,3e-05,0.00011,6e-05,6.0
27151.0,3e-05,-6e-05,-0.0001,-7e-05,-3e-05,3e-05,0.00011,6e-05,6.0
27152.0,3e-05,-6e-05,-0.0001,-7e-05,-3e-05,3e-05,0.00011,6e-05,6.0
27153.0,3e-05,-6e-05,-0.0001,-7e-05,-3e-05,3e-05,0.00011,6e-05,6.0
27154.0,3e-05,-6e-05,-0.0001,-7e-05,-3e-05,3e-05,0.00011,6e-05,6.0
27155.0,3e-05,-6e-05,-0.0001,-7e-05,-3e-05,3e-05,0.00011,6e-05,6.0
27156.0,3e-05,-6e-05,-0.0001,-7e-05,-3e-05,3e-05,0.00011,6e-05,6.0
27157.0,3e-05,-6e-05,-0.0001,-7e-05,-3e-05,3e-05,0.00011,6e-05,6.0
27158.0,3e-05,-6e-05,-0.0001,-7e-05,-3e-05,3e-05,0.00011,6e-05,6.0
27159.0,-0.00016,-7e-05,-7e-05,-8e-05,-0.00016,-0.00016,-0.00023,-2e-05,6.0
27160.0,-0.00016,-7e-05,-7e-05,-8e-05,-0.00016,-0.00016,-0.00023,-2e-05,6.0
27161.0,-0.00016,-7e-05,-7e-05,-8e-05,-0.00016,-0.00016,-0.00023,-2e-05,6.0
27162.0,-0.00016,-7e-05,-7e-05,-8e-05,-0.00016,-0.00016,-0.00023,-2e-05,6.0
27163.0,-0.00016,-7e-05,-7e-05,-8e-05,-0.00016,-0.00016,-0.00023,-2e-05,6.0
27164.0,-0.00016,-7e-05,-7e-05,-8e-05,-0.00016,-0.00016,-0.00023,-2e-05,6.0
27165.0,-0.00016,-7e-05,-7e-05,-8e-05,-0.00016,-0.00016,-0.00023,-2e-05,6.0
27166.0,-0.00016,-7e-05,-7e-05,-8e-05,-0.00016,-0.00016,-0.00023,-2e-05,6.0
27167.0,-0.00016,-7e-05,-7e-05,-8e-05,-0.00016,-0.00016,-0.00023,-2e-05,6.0
27168.0,0.00044,0.00011,-9e-05,-0.0001,-0.00012,-5e-05,3e-05,0.0006,6.0
27169.0,-0.00014,5e-05,5e-05,8e-05,6e-05,1e-05,-3e-05,-0.00046,6.0
27170.0,-0.00014,5e-05,5e-05,8e-05,6e-05,1e-05,-3e-05,-0.00046,6.0
27171.0,-0.00014,5e-05,5e-05,8e-05,6e-05,1e-05,-3e-05,-0.00046,6.0
27172.0,0.00036,0.00018,-7e-05,-5e-05,0.00011,0.00023,0.00019,0.00012,6.0
27173.0,-6e-05,2e-05,0.0,3e-05,1e-05,3e-05,-0.00022,-0.00027,6.0
27174.0,-4e-05,3e-05,-2e-05,-4e-05,-6e-05,-0.00015,3e-05,1e-05,6.0
27175.0,-4e-05,3e-05,-2e-05,-4e-05,-6e-05,-0.00015,3e-05,1e-05,6.0
27176.0,-4e-05,3e-05,-2e-05,-4e-05,-6e-05,-0.00015,3e-05,1e-05,6.0
27177.0,-4e-05,3e-05,-2e-05,-4e-05,-6e-05,-0.00015,3e-05,1e-05,6.0
27178.0,-4e-05,3e-05,-2e-05,-4e-05,-6e-05,-0.00015,3e-05,1e-05,6.0
27179.0,-4e-05,3e-05,-2e-05,-4e-05,-6e-05,-0.00015,3e-05,1e-05,6.0
27180.0,-4e-05,3e-05,-2e-05,-4e-05,-6e-05,-0.00015,3e-05,1e-05,6.0
27181.0,-4e-05,3e-05,-2e-05,-4e-05,-6e-05,-0.00015,3e-05,1e-05,6.0
27182.0,-4e-05,3e-05,-2e-05,-4e-05,-6e-05,-0.00015,3e-05,1e-05,6.0
27183.0,-4e-05,3e-05,-2e-05,-4e-05,-6e-05,-0.00015,3e-05,1e-05,6.0
27184.0,-4e-05,3e-05,-2e-05,-4e-05,-6e-05,-0.00015,3e-05,1e-05,6.0
27185.0,-4e-05,3e-05,-2e-05,-4e-05,-6e-05,-0.00015,3e-05,1e-05,6.0
27186.0,-4e-05,3e-05,-2e-05,-4e-05,-6e-05,-0.00015,3e-05,1e-05,6.0
27189.0,0.00015,-5e-05,-4e-05,-4e-05,-1e-05,0.00011,-3e-05,0.00019,6.0
27190.0,0.0002,0.0001,3e-05,-3e-05,5e-05,0.00012,0.00026,-0.00023,6.0
27191.0,0.0002,0.0001,3e-05,-3e-05,5e-05,0.00012,0.00026,-0.00023,6.0
27192.0,0.0002,0.0001,3e-05,-3e-05,5e-05,0.00012,0.00026,-0.00023,6.0
27193.0,0.0002,0.0001,3e-05,-3e-05,5e-05,0.00012,0.00026,-0.00023,6.0
27194.0,0.0002,0.0001,3e-05,-3e-05,5e-05,0.00012,0.00026,-0.00023,6.0
27195.0,0.0002,0.0001,3e-05,-3e-05,5e-05,0.00012,0.00026,-0.00023,6.0
27196.0,-0.00015,1e-05,-8e-05,0.0,1e-05,3e-05,7e-05,0.00018,6.0
27197.0,-0.00022,-7e-05,-7e-05,-2e-05,-1e-05,1e-05,-0.00016,-6e-05,6.0
27198.0,-0.00022,-7e-05,-7e-05,-2e-05,-1e-05,1e-05,-0.00016,-6e-05,6.0
27199.0,-0.00022,-7e-05,-7e-05,-2e-05,-1e-05,1e-05,-0.00016,-6e-05,6.0
27200.0,-0.00022,-7e-05,-7e-05,-2e-05,-1e-05,1e-05,-0.00016,-6e-05,6.0
27201.0,-0.00022,-7e-05,-7e-05,-2e-05,-1e-05,1e-05,-0.00016,-6e-05,6.0
27202.0,-0.00022,-7e-05,-7e-05,-2e-05,-1e-05,1e-05,-0.00016,-6e-05,6.0
27203.0,-0.00022,-7e-05,-7e-05,-2e-05,-1e-05,1e-05,-0.00016,-6e-05,6.0
27204.0,-0.00022,-7e-05,-7e-05,-2e-05,-1e-05,1e-05,-0.00016,-6e-05,6.0
27205.0,-0.00022,-7e-05,-7e-05,-2e-05,-1e-05,1e-05,-0.00016,-6e-05,6.0
27206.0,-0.00022,-7e-05,-7e-05,-2e-05,-1e-05,1e-05,-0.00016,-6e-05,6.0
27207.0,-0.00022,-7e-05,-7e-05,-2e-05,-1e-05,1e-05,-0.00016,-6e-05,6.0
27208.0,-0.00022,-7e-05,-7e-05,-2e-05,-1e-05,1e-05,-0.00016,-6e-05,6.0
27209.0,-0.00022,-7e-05,-7e-05,-2e-05,-1e-05,1e-05,-0.00016,-6e-05,6.0
27210.0,-0.00022,-7e-05,-7e-05,-2e-05,-1e-05,1e-05,-0.00016,-6e-05,6.0
27211.0,-0.00022,-7e-05,-7e-05,-2e-05,-1e-05,1e-05,-0.00016,-6e-05,6.0
27212.0,-0.00022,-7e-05,-7e-05,-2e-05,-1e-05,1e-05,-0.00016,-6e-05,6.0
27213.0,-0.00022,-7e-05,-7e-05,-2e-05,-1e-05,1e-05,-0.00016,-6e-05,6.0
27214.0,-0.00022,-7e-05,-7e-05,-2e-05,-1e-05,1e-05,-0.00016,-6e-05,6.0
27215.0,-0.00022,-7e-05,-7e-05,-2e-05,-1e-05,1e-05,-0.00016,-6e-05,6.0
27216.0,-0.00022,-7e-05,-7e-05,-2e-05,-1e-05,1e-05,-0.00016,-6e-05,6.0
27217.0,-0.00022,-7e-05,-7e-05,-2e-05,-1e-05,1e-05,-0.00016,-6e-05,6.0
27218.0,3e-05,-2e-05,-4e-05,-2e-05,-4e-05,3e-05,9e-05,0.00012,6.0
27219.0,-0.00014,-0.0001,0.0,-3e-05,-5e-05,-8e-05,-0.00028,-0.00015,6.0
27220.0,-0.00014,-0.0001,0.0,-3e-05,-5e-05,-8e-05,-0.00028,-0.00015,6.0
27221.0,-0.00014,-0.0001,0.0,-3e-05,-5e-05,-8e-05,-0.00028,-0.00015,6.0
27222.0,-0.00014,-0.0001,0.0,-3e-05,-5e-05,-8e-05,-0.00028,-0.00015,6.0
27223.0,-0.00014,-0.0001,0.0,-3e-05,-5e-05,-8e-05,-0.00028,-0.00015,6.0
27224.0,-0.00014,-0.0001,0.0,-3e-05,-5e-05,-8e-05,-0.00028,-0.00015,6.0
27225.0,-0.00014,-0.0001,0.0,-3e-05,-5e-05,-8e-05,-0.00028,-0.00015,6.0
27226.0,-0.00014,-0.0001,0.0,-3e-05,-5e-05,-8e-05,-0.00028,-0.00015,6.0
27227.0,-0.00014,-0.0001,0.0,-3e-05,-5e-05,-8e-05,-0.00028,-0.00015,6.0
27228.0,-0.00014,-0.0001,0.0,-3e-05,-5e-05,-8e-05,-0.00028,-0.00015,6.0
27229.0,-0.00014,-0.0001,0.0,-3e-05,-5e-05,-8e-05,-0.00028,-0.00015,6.0
27230.0,-0.00014,-0.0001,0.0,-3e-05,-5e-05,-8e-05,-0.00028,-0.00015,6.0
27231.0,-0.00014,-0.0001,0.0,-3e-05,-5e-05,-8e-05,-0.00028,-0.00015,6.0
27232.0,-1e-05,-0.0001,-6e-05,-3e-05,1e-05,8e-05,7e-05,0.00019,6.0
27233.0,-1e-05,-0.0001,-6e-05,-3e-05,1e-05,8e-05,7e-05,0.00019,6.0
27234.0,-1e-05,-0.0001,-6e-05,-3e-05,1e-05,8e-05,7e-05,0.00019,6.0
27235.0,-1e-05,-0.0001,-6e-05,-3e-05,1e-05,8e-05,7e-05,0.00019,6.0
27236.0,-1e-05,-0.0001,-6e-05,-3e-05,1e-05,8e-05,7e-05,0.00019,6.0
27238.0,-1e-05,-0.0001,-6e-05,-3e-05,1e-05,8e-05,7e-05,0.00019,6.0
27241.0,-2e-05,-0.0001,4e-05,4e-05,0.00011,0.00012,3e-05,-3e-05,6.0
27242.0,-2e-05,-0.0001,4e-05,4e-05,0.00011,0.00012,3e-05,-3e-05,6.0
27243.0,-2e-05,-0.0001,4e-05,4e-05,0.00011,0.00012,3e-05,-3e-05,6.0
27244.0,-2e-05,-0.0001,4e-05,4e-05,0.00011,0.00012,3e-05,-3e-05,6.0
27245.0,-2e-05,-0.0001,4e-05,4e-05,0.00011,0.00012,3e-05,-3e-05,6.0
27246.0,-2e-05,-0.0001,4e-05,4e-05,0.00011,0.00012,3e-05,-3e-05,6.0
27247.0,-2e-05,-0.0001,4e-05,4e-05,0.00011,0.00012,3e-05,-3e-05,6.0
27248.0,-2e-05,-0.0001,4e-05,4e-05,0.00011,0.00012,3e-05,-3e-05,6.0
27249.0,-2e-05,-0.0001,4e-05,4e-05,0.00011,0.00012,3e-05,-3e-05,6.0
27250.0,-2e-05,-0.0001,4e-05,4e-05,0.00011,0.00012,3e-05,-3e-05,6.0
27251.0,-2e-05,-0.0001,4e-05,4e-05,0.00011,0.00012,3e-05,-3e-05,6.0
27252.0,-2e-05,-0.0001,4e-05,4e-05,0.00011,0.00012,3e-05,-3e-05,6.0
27253.0,-2e-05,-0.0001,4e-05,4e-05,0.00011,0.00012,3e-05,-3e-05,6.0
27254.0,-2e-05,-0.0001,4e-05,4e-05,0.00011,0.00012,3e-05,-3e-05,6.0
27255.0,-2e-05,-0.0001,4e-05,4e-05,0.00011,0.00012,3e-05,-3e-05,6.0
27256.0,-2e-05,-0.0001,4e-05,4e-05,0.00011,0.00012,3e-05,-3e-05,6.0
27257.0,-2e-05,-0.0001,4e-05,4e-05,0.00011,0.00012,3e-05,-3e-05,6.0
27258.0,-2e-05,-0.0001,4e-05,4e-05,0.00011,0.00012,3e-05,-3e-05,6.0
27259.0,-2e-05,-0.0001,4e-05,4e-05,0.00011,0.00012,3e-05,-3e-05,6.0
27260.0,-2e-05,-0.0001,4e-05,4e-05,0.00011,0.00012,3e-05,-3e-05,6.0
27261.0,-2e-05,-0.0001,4e-05,4e-05,0.00011,0.00012,3e-05,-3e-05,6.0
27262.0,-2e-05,-0.0001,4e-05,4e-05,0.00011,0.00012,3e-05,-3e-05,6.0
27263.0,-2e-05,-0.0001,4e-05,4e-05,0.00011,0.00012,3e-05,-3e-05,6.0
27264.0,-2e-05,-0.0001,4e-05,4e-05,0.00011,0.00012,3e-05,-3e-05,6.0
27265.0,-2e-05,-0.0001,4e-05,4e-05,0.00011,0.00012,3e-05,-3e-05,6.0
27266.0,-2e-05,-0.0001,4e-05,4e-05,0.00011,0.00012,3e-05,-3e-05,6.0
27267.0,-2e-05,-0.0001,4e-05,4e-05,0.00011,0.00012,3e-05,-3e-05,6.0
27268.0,-2e-05,-0.0001,4e-05,4e-05,0.00011,0.00012,3e-05,-3e-05,6.0
27269.0,-2e-05,-0.0001,4e-05,4e-05,0.00011,0.00012,3e-05,-3e-05,6.0
27270.0,-2e-05,-0.0001,4e-05,4e-05,0.00011,0.00012,3e-05,-3e-05,6.0
27271.0,0.00011,-5e-05,-1e-05,-3e-05,-0.0001,-0.0001,-5e-05,0.00022,6.0
27272.0,0.00011,-5e-05,-1e-05,-3e-05,-0.0001,-0.0001,-5e-05,0.00022,6.0
27273.0,0.00011,-5e-05,-1e-05,-3e-05,-0.0001,-0.0001,-5e-05,0.00022,6.0
27274.0,0.00011,-5e-05,-1e-05,-3e-05,-0.0001,-0.0001,-5e-05,0.00022,6.0
27275.0,0.00011,-5e-05,-1e-05,-3e-05,-0.0001,-0.0001,-5e-05,0.00022,6.0
27276.0,0.00011,-5e-05,-1e-05,-3e-05,-0.0001,-0.0001,-5e-05,0.00022,6.0
27277.0,0.00011,-5e-05,-1e-05,-3e-05,-0.0001,-0.0001,-5e-05,0.00022,6.0
27278.0,-0.00014,-0.00012,-3e-05,-3e-05,-0.00014,-0.00011,-0.00013,-0.00056,6.0
27279.0,-0.00014,-0.00012,-3e-05,-3e-05,-0.00014,-0.00011,-0.00013,-0.00056,6.0
27280.0,-0.00014,-0.00012,-3e-05,-3e-05,-0.00014,-0.00011,-0.00013,-0.00056,6.0
27281.0,-0.00014,-0.00012,-3e-05,-3e-05,-0.00014,-0.00011,-0.00013,-0.00056,6.0
27282.0,-0.00014,-0.00012,-3e-05,-3e-05,-0.00014,-0.00011,-0.00013,-0.00056,6.0
27283.0,-0.00014,-0.00012,-3e-05,-3e-05,-0.00014,-0.00011,-0.00013,-0.00056,6.0
27284.0,-0.00014,-0.00012,-3e-05,-3e-05,-0.00014,-0.00011,-0.00013,-0.00056,6.0
27285.0,0.00013,4e-05,-1e-05,2e-05,1e-05,-2e-05,0.0,-8e-05,6.0
27286.0,0.00013,4e-05,-1e-05,2e-05,1e-05,-2e-05,0.0,-8e-05,6.0
27289.0,0.00013,4e-05,-1e-05,2e-05,1e-05,-2e-05,0.0,-8e-05,6.0
27290.0,0.00013,4e-05,-1e-05,2e-05,1e-05,-2e-05,0.0,-8e-05,6.0
27291.0,0.00013,4e-05,-1e-05,2e-05,1e-05,-2e-05,0.0,-8e-05,6.0
27292.0,0.00013,4e-05,-1e-05,2e-05,1e-05,-2e-05,0.0,-8e-05,6.0
27293.0,0.00013,4e-05,-1e-05,2e-05,1e-05,-2e-05,0.0,-8e-05,6.0
27294.0,0.00013,4e-05,-1e-05,2e-05,1e-05,-2e-05,0.0,-8e-05,6.0
27295.0,0.00013,4e-05,-1e-05,2e-05,1e-05,-2e-05,0.0,-8e-05,6.0
27296.0,0.00013,4e-05,-1e-05,2e-05,1e-05,-2e-05,0.0,-8e-05,6.0
27297.0,0.00013,4e-05,-1e-05,2e-05,1e-05,-2e-05,0.0,-8e-05,6.0
27298.0,0.00013,4e-05,-1e-05,2e-05,1e-05,-2e-05,0.0,-8e-05,6.0
27299.0,0.00013,4e-05,-1e-05,2e-05,1e-05,-2e-05,0.0,-8e-05,6.0
27300.0,0.00013,4e-05,-1e-05,2e-05,1e-05,-2e-05,0.0,-8e-05,6.0
27301.0,0.00013,4e-05,-1e-05,2e-05,1e-05,-2e-05,0.0,-8e-05,6.0
27302.0,0.00013,4e-05,-1e-05,2e-05,1e-05,-2e-05,0.0,-8e-05,6.0
27303.0,0.00013,4e-05,-1e-05,2e-05,1e-05,-2e-05,0.0,-8e-05,6.0
27304.0,0.00013,4e-05,-1e-05,2e-05,1e-05,-2e-05,0.0,-8e-05,6.0
27305.0,0.00013,4e-05,-1e-05,2e-05,1e-05,-2e-05,0.0,-8e-05,6.0
27306.0,0.00013,4e-05,-1e-05,2e-05,1e-05,-2e-05,0.0,-8e-05,6.0
27307.0,0.00013,4e-05,-1e-05,2e-05,1e-05,-2e-05,0.0,-8e-05,6.0
27308.0,0.00022,0.00026,0.0001,6e-05,1e-05,-9e-05,-6e-05,2e-05,6.0
27309.0,6e-05,1e-05,-3e-05,-5e-05,-9e-05,-7e-05,6e-05,0.0,6.0
27310.0,6e-05,1e-05,-3e-05,-5e-05,-9e-05,-7e-05,6e-05,0.0,6.0
27311.0,6e-05,1e-05,-3e-05,-5e-05,-9e-05,-7e-05,6e-05,0.0,6.0
27312.0,6e-05,1e-05,-3e-05,-5e-05,-9e-05,-7e-05,6e-05,0.0,6.0
27313.0,6e-05,1e-05,-3e-05,-5e-05,-9e-05,-7e-05,6e-05,0.0,6.0
27314.0,6e-05,1e-05,-3e-05,-5e-05,-9e-05,-7e-05,6e-05,0.0,6.0
27315.0,6e-05,1e-05,-3e-05,-5e-05,-9e-05,-7e-05,6e-05,0.0,6.0
27316.0,-0.00015,-3e-05,-4e-05,-3e-05,-5e-05,-2e-05,-3e-05,-0.0001,6.0
27317.0,-0.00015,-3e-05,-4e-05,-3e-05,-5e-05,-2e-05,-3e-05,-0.0001,6.0
27318.0,-0.00015,-3e-05,-4e-05,-3e-05,-5e-05,-2e-05,-3e-05,-0.0001,6.0
27319.0,-0.00015,-3e-05,-4e-05,-3e-05,-5e-05,-2e-05,-3e-05,-0.0001,6.0
27320.0,-0.00015,-3e-05,-4e-05,-3e-05,-5e-05,-2e-05,-3e-05,-0.0001,6.0
27321.0,-0.00015,-3e-05,-4e-05,-3e-05,-5e-05,-2e-05,-3e-05,-0.0001,6.0
27322.0,-0.00015,-3e-05,-4e-05,-3e-05,-5e-05,-2e-05,-3e-05,-0.0001,6.0
27323.0,-0.00015,-3e-05,-4e-05,-3e-05,-5e-05,-2e-05,-3e-05,-0.0001,6.0
27324.0,-0.00015,-3e-05,-4e-05,-3e-05,-5e-05,-2e-05,-3e-05,-0.0001,6.0
27325.0,-0.00015,-3e-05,-4e-05,-3e-05,-5e-05,-2e-05,-3e-05,-0.0001,6.0
27326.0,-0.00015,-3e-05,-4e-05,-3e-05,-5e-05,-2e-05,-3e-05,-0.0001,6.0
27327.0,-0.00015,-3e-05,-4e-05,-3e-05,-5e-05,-2e-05,-3e-05,-0.0001,6.0
27329.0,-0.00015,-3e-05,-4e-05,-3e-05,-5e-05,-2e-05,-3e-05,-0.0001,6.0
27330.0,-0.00015,-3e-05,-4e-05,-3e-05,-5e-05,-2e-05,-3e-05,-0.0001,6.0
27331.0,-0.00015,-3e-05,-4e-05,-3e-05,-5e-05,-2e-05,-3e-05,-0.0001,6.0
27332.0,-0.00015,-3e-05,-4e-05,-3e-05,-5e-05,-2e-05,-3e-05,-0.0001,6.0
27333.0,-0.00015,-3e-05,-4e-05,-3e-05,-5e-05,-2e-05,-3e-05,-0.0001,6.0
27334.0,-0.00015,-3e-05,-4e-05,-3e-05,-5e-05,-2e-05,-3e-05,-0.0001,6.0
27335.0,-0.00015,-3e-05,-4e-05,-3e-05,-5e-05,-2e-05,-3e-05,-0.0001,6.0
27336.0,-0.00015,-3e-05,-4e-05,-3e-05,-5e-05,-2e-05,-3e-05,-0.0001,6.0
27339.0,4e-05,5e-05,0.0,0.0,4e-05,-4e-05,-4e-05,3e-05,6.0
27340.0,0.00013,1e-05,0.0,0.0,-1e-05,1e-05,0.00019,0.00025,6.0
27341.0,0.00013,1e-05,0.0,0.0,-1e-05,1e-05,0.00019,0.00025,6.0
27342.0,0.00013,1e-05,0.0,0.0,-1e-05,1e-05,0.00019,0.00025,6.0
27343.0,0.00013,1e-05,0.0,0.0,-1e-05,1e-05,0.00019,0.00025,6.0
27344.0,0.00013,1e-05,0.0,0.0,-1e-05,1e-05,0.00019,0.00025,6.0
27345.0,0.00013,1e-05,0.0,0.0,-1e-05,1e-05,0.00019,0.00025,6.0
27346.0,0.00013,1e-05,0.0,0.0,-1e-05,1e-05,0.00019,0.00025,6.0
27347.0,0.00013,1e-05,0.0,0.0,-1e-05,1e-05,0.00019,0.00025,6.0
27348.0,0.00013,1e-05,0.0,0.0,-1e-05,1e-05,0.00019,0.00025,6.0
27349.0,0.00013,1e-05,0.0,0.0,-1e-05,1e-05,0.00019,0.00025,6.0
27350.0,0.00013,1e-05,0.0,0.0,-1e-05,1e-05,0.00019,0.00025,6.0
27351.0,0.00013,1e-05,0.0,0.0,-1e-05,1e-05,0.00019,0.00025,6.0
27352.0,0.00013,1e-05,0.0,0.0,-1e-05,1e-05,0.00019,0.00025,6.0
27353.0,0.00013,1e-05,0.0,0.0,-1e-05,1e-05,0.00019,0.00025,6.0
27354.0,0.00013,1e-05,0.0,0.0,-1e-05,1e-05,0.00019,0.00025,6.0
27355.0,0.00013,1e-05,0.0,0.0,-1e-05,1e-05,0.00019,0.00025,6.0
27356.0,0.00013,1e-05,0.0,0.0,-1e-05,1e-05,0.00019,0.00025,6.0
27357.0,0.00013,1e-05,0.0,0.0,-1e-05,1e-05,0.00019,0.00025,6.0
27358.0,0.00013,1e-05,0.0,0.0,-1e-05,1e-05,0.00019,0.00025,6.0
27359.0,0.00013,1e-05,0.0,0.0,-1e-05,1e-05,0.00019,0.00025,6.0
27360.0,0.00013,1e-05,0.0,0.0,-1e-05,1e-05,0.00019,0.00025,6.0
27361.0,0.0002,3e-05,-4e-05,-5e-05,-8e-05,-0.0001,8e-05,7e-05,6.0
27362.0,0.0002,3e-05,-4e-05,-5e-05,-8e-05,-0.0001,8e-05,7e-05,6.0
27363.0,0.0002,3e-05,-4e-05,-5e-05,-8e-05,-0.0001,8e-05,7e-05,6.0
27364.0,0.0002,3e-05,-4e-05,-5e-05,-8e-05,-0.0001,8e-05,7e-05,6.0
27365.0,0.0002,3e-05,-4e-05,-5e-05,-8e-05,-0.0001,8e-05,7e-05,6.0
27366.0,0.0002,3e-05,-4e-05,-5e-05,-8e-05,-0.0001,8e-05,7e-05,6.0
27367.0,0.0002,3e-05,-4e-05,-5e-05,-8e-05,-0.0001,8e-05,7e-05,6.0
27368.0,0.0002,3e-05,-4e-05,-5e-05,-8e-05,-0.0001,8e-05,7e-05,6.0
27369.0,0.0002,3e-05,-4e-05,-5e-05,-8e-05,-0.0001,8e-05,7e-05,6.0
27370.0,0.0002,3e-05,-4e-05,-5e-05,-8e-05,-0.0001,8e-05,7e-05,6.0
27371.0,0.0002,3e-05,-4e-05,-5e-05,-8e-05,-0.0001,8e-05,7e-05,6.0
27372.0,0.0002,3e-05,-4e-05,-5e-05,-8e-05,-0.0001,8e-05,7e-05,6.0
27373.0,0.0002,3e-05,-4e-05,-5e-05,-8e-05,-0.0001,8e-05,7e-05,6.0
27374.0,0.0002,3e-05,-4e-05,-5e-05,-8e-05,-0.0001,8e-05,7e-05,6.0
27375.0,0.0002,3e-05,-4e-05,-5e-05,-8e-05,-0.0001,8e-05,7e-05,6.0
27376.0,-0.00027,-0.0002,-8e-05,-8e-05,-0.00012,-0.0001,-9e-05,-0.00028,6.0
27377.0,-0.00021,-0.00019,-0.00015,-0.00012,-0.00011,-0.00018,-0.0001,4e-05,6.0
27378.0,-0.00021,-0.00019,-0.00015,-0.00012,-0.00011,-0.00018,-0.0001,4e-05,6.0
27379.0,-0.00021,-0.00019,-0.00015,-0.00012,-0.00011,-0.00018,-0.0001,4e-05,6.0
27380.0,-0.00021,-0.00019,-0.00015,-0.00012,-0.00011,-0.00018,-0.0001,4e-05,6.0
27381.0,-0.00021,-0.00019,-0.00015,-0.00012,-0.00011,-0.00018,-0.0001,4e-05,6.0
27382.0,-0.00021,-0.00019,-0.00015,-0.00012,-0.00011,-0.00018,-0.0001,4e-05,6.0
27383.0,-0.00021,-0.00019,-0.00015,-0.00012,-0.00011,-0.00018,-0.0001,4e-05,6.0
27384.0,-0.00021,-0.00019,-0.00015,-0.00012,-0.00011,-0.00018,-0.0001,4e-05,6.0
27385.0,-0.00021,-0.00019,-0.00015,-0.00012,-0.00011,-0.00018,-0.0001,4e-05,6.0
27386.0,-0.00021,-0.00019,-0.00015,-0.00012,-0.00011,-0.00018,-0.0001,4e-05,6.0
27389.0,-0.00021,-0.00019,-0.00015,-0.00012,-0.00011,-0.00018,-0.0001,4e-05,6.0
27390.0,-0.00021,-0.00019,-0.00015,-0.00012,-0.00011,-0.00018,-0.0001,4e-05,6.0
27391.0,-0.00021,-0.00019,-0.00015,-0.00012,-0.00011,-0.00018,-0.0001,4e-05,6.0
27392.0,-0.00021,-0.00019,-0.00015,-0.00012,-0.00011,-0.00018,-0.0001,4e-05,6.0
27393.0,-0.00021,-0.00019,-0.00015,-0.00012,-0.00011,-0.00018,-0.0001,4e-05,6.0
27394.0,-0.00021,-0.00019,-0.00015,-0.00012,-0.00011,-0.00018,-0.0001,4e-05,6.0
27395.0,-0.00021,-0.00019,-0.00015,-0.00012,-0.00011,-0.00018,-0.0001,4e-05,6.0
27396.0,-0.00021,-0.00019,-0.00015,-0.00012,-0.00011,-0.00018,-0.0001,4e-05,6.0
27397.0,-0.00021,-0.00019,-0.00015,-0.00012,-0.00011,-0.00018,-0.0001,4e-05,6.0
27398.0,-8e-05,-3e-05,-7e-05,-7e-05,-0.00014,-0.00016,5e-05,0.00017,6.0
27399.0,-8e-05,-3e-05,-7e-05,-7e-05,-0.00014,-0.00016,5e-05,0.00017,6.0
27400.0,0.00016,0.00013,3e-05,4e-05,0.00012,0.00015,0.00027,0.00034,6.0
27401.0,0.00016,0.00013,3e-05,4e-05,0.00012,0.00015,0.00027,0.00034,6.0
27402.0,0.00016,0.00013,3e-05,4e-05,0.00012,0.00015,0.00027,0.00034,6.0
27403.0,0.00016,0.00013,3e-05,4e-05,0.00012,0.00015,0.00027,0.00034,6.0
27404.0,0.00016,0.00013,3e-05,4e-05,0.00012,0.00015,0.00027,0.00034,6.0
27405.0,0.00016,0.00013,3e-05,4e-05,0.00012,0.00015,0.00027,0.00034,6.0
27406.0,0.00016,0.00013,3e-05,4e-05,0.00012,0.00015,0.00027,0.00034,6.0
27407.0,0.00016,0.00013,3e-05,4e-05,0.00012,0.00015,0.00027,0.00034,6.0
27408.0,0.00016,0.00013,3e-05,4e-05,0.00012,0.00015,0.00027,0.00034,6.0
27409.0,0.00016,0.00013,3e-05,4e-05,0.00012,0.00015,0.00027,0.00034,6.0
27410.0,0.00016,0.00013,3e-05,4e-05,0.00012,0.00015,0.00027,0.00034,6.0
27411.0,0.00016,0.00013,3e-05,4e-05,0.00012,0.00015,0.00027,0.00034,6.0
27412.0,-0.00014,4e-05,3e-05,1e-05,-4e-05,0.00011,-4e-05,0.0001,6.0
27413.0,-0.00014,4e-05,3e-05,1e-05,-4e-05,0.00011,-4e-05,0.0001,6.0
27414.0,-0.00014,4e-05,3e-05,1e-05,-4e-05,0.00011,-4e-05,0.0001,6.0
27415.0,-0.00014,4e-05,3e-05,1e-05,-4e-05,0.00011,-4e-05,0.0001,6.0
27416.0,-0.00014,4e-05,3e-05,1e-05,-4e-05,0.00011,-4e-05,0.0001,6.0
27417.0,-0.00014,4e-05,3e-05,1e-05,-4e-05,0.00011,-4e-05,0.0001,6.0
27418.0,-0.00014,4e-05,3e-05,1e-05,-4e-05,0.00011,-4e-05,0.0001,6.0
27419.0,-0.00014,4e-05,3e-05,1e-05,-4e-05,0.00011,-4e-05,0.0001,6.0
27420.0,-0.00014,4e-05,3e-05,1e-05,-4e-05,0.00011,-4e-05,0.0001,6.0
27421.0,1e-05,1e-05,9e-05,2e-05,-3e-05,-4e-05,9e-05,0.00038,6.0
27422.0,1e-05,1e-05,9e-05,2e-05,-3e-05,-4e-05,9e-05,0.00038,6.0
27423.0,1e-05,1e-05,9e-05,2e-05,-3e-05,-4e-05,9e-05,0.00038,6.0
27424.0,1e-05,1e-05,9e-05,2e-05,-3e-05,-4e-05,9e-05,0.00038,6.0
27425.0,1e-05,1e-05,9e-05,2e-05,-3e-05,-4e-05,9e-05,0.00038,6.0
27426.0,1e-05,1e-05,9e-05,2e-05,-3e-05,-4e-05,9e-05,0.00038,6.0
27427.0,1e-05,1e-05,9e-05,2e-05,-3e-05,-4e-05,9e-05,0.00038,6.0
27428.0,1e-05,1e-05,9e-05,2e-05,-3e-05,-4e-05,9e-05,0.00038,6.0
27429.0,1e-05,1e-05,9e-05,2e-05,-3e-05,-4e-05,9e-05,0.00038,6.0
27430.0,1e-05,1e-05,9e-05,2e-05,-3e-05,-4e-05,9e-05,0.00038,6.0
27431.0,1e-05,1e-05,9e-05,2e-05,-3e-05,-4e-05,9e-05,0.00038,6.0
27432.0,1e-05,1e-05,9e-05,2e-05,-3e-05,-4e-05,9e-05,0.00038,6.0
27433.0,1e-05,1e-05,9e-05,2e-05,-3e-05,-4e-05,9e-05,0.00038,6.0
27434.0,1e-05,1e-05,9e-05,2e-05,-3e-05,-4e-05,9e-05,0.00038,6.0
27435.0,1e-05,1e-05,9e-05,2e-05,-3e-05,-4e-05,9e-05,0.00038,6.0
27436.0,-2e-05,-7e-05,-6e-05,-3e-05,-0.0001,-0.00014,6e-05,5e-05,6.0
27439.0,-2e-05,7e-05,1e-05,0.0,-6e-05,7e-05,0.0,-7e-05,6.0
27440.0,-2e-05,7e-05,1e-05,0.0,-6e-05,7e-05,0.0,-7e-05,6.0
27441.0,-2e-05,7e-05,1e-05,0.0,-6e-05,7e-05,0.0,-7e-05,6.0
27442.0,-2e-05,7e-05,1e-05,0.0,-6e-05,7e-05,0.0,-7e-05,6.0
27443.0,-2e-05,7e-05,1e-05,0.0,-6e-05,7e-05,0.0,-7e-05,6.0
27444.0,-2e-05,7e-05,1e-05,0.0,-6e-05,7e-05,0.0,-7e-05,6.0
27445.0,-2e-05,7e-05,1e-05,0.0,-6e-05,7e-05,0.0,-7e-05,6.0
27446.0,-2e-05,7e-05,1e-05,0.0,-6e-05,7e-05,0.0,-7e-05,6.0
27447.0,-2e-05,7e-05,1e-05,0.0,-6e-05,7e-05,0.0,-7e-05,6.0
27448.0,-2e-05,7e-05,1e-05,0.0,-6e-05,7e-05,0.0,-7e-05,6.0
27449.0,-2e-05,7e-05,1e-05,0.0,-6e-05,7e-05,0.0,-7e-05,6.0
27450.0,-2e-05,7e-05,1e-05,0.0,-6e-05,7e-05,0.0,-7e-05,6.0
27451.0,-2e-05,7e-05,1e-05,0.0,-6e-05,7e-05,0.0,-7e-05,6.0
27452.0,-2e-05,7e-05,1e-05,0.0,-6e-05,7e-05,0.0,-7e-05,6.0
27453.0,-2e-05,7e-05,1e-05,0.0,-6e-05,7e-05,0.0,-7e-05,6.0
27454.0,-2e-05,7e-05,1e-05,0.0,-6e-05,7e-05,0.0,-7e-05,6.0
27455.0,-2e-05,7e-05,1e-05,0.0,-6e-05,7e-05,0.0,-7e-05,6.0
27456.0,-2e-05,7e-05,1e-05,0.0,-6e-05,7e-05,0.0,-7e-05,6.0
27457.0,-2e-05,7e-05,1e-05,0.0,-6e-05,7e-05,0.0,-7e-05,6.0
27458.0,-2e-05,7e-05,1e-05,0.0,-6e-05,7e-05,0.0,-7e-05,6.0
27459.0,-2e-05,7e-05,1e-05,0.0,-6e-05,7e-05,0.0,-7e-05,6.0
27460.0,-2e-05,7e-05,1e-05,0.0,-6e-05,7e-05,0.0,-7e-05,6.0
27461.0,-2e-05,7e-05,1e-05,0.0,-6e-05,7e-05,0.0,-7e-05,6.0
27462.0,-2e-05,7e-05,1e-05,0.0,-6e-05,7e-05,0.0,-7e-05,6.0
27463.0,-2e-05,7e-05,1e-05,0.0,-6e-05,7e-05,0.0,-7e-05,6.0
27464.0,-2e-05,7e-05,1e-05,0.0,-6e-05,7e-05,0.0,-7e-05,6.0
27465.0,-2e-05,7e-05,1e-05,0.0,-6e-05,7e-05,0.0,-7e-05,6.0
27466.0,-0.00015,-0.00013,-8e-05,-0.00012,-0.00023,-0.00015,-0.00013,8e-05,6.0
27467.0,-0.00015,-0.00013,-8e-05,-0.00012,-0.00023,-0.00015,-0.00013,8e-05,6.0
27468.0,-0.00016,-0.00011,-5e-05,-3e-05,-6e-05,-5e-05,4e-05,0.00012,6.0
27469.0,-0.00016,-0.00011,-5e-05,-3e-05,-6e-05,-5e-05,4e-05,0.00012,6.0
27470.0,-0.00016,-0.00011,-5e-05,-3e-05,-6e-05,-5e-05,4e-05,0.00012,6.0
27471.0,-0.00016,-0.00011,-5e-05,-3e-05,-6e-05,-5e-05,4e-05,0.00012,6.0
27472.0,-0.00016,-0.00011,-5e-05,-3e-05,-6e-05,-5e-05,4e-05,0.00012,6.0
27473.0,-0.00016,-0.00011,-5e-05,-3e-05,-6e-05,-5e-05,4e-05,0.00012,6.0
27474.0,-0.00016,-0.00011,-5e-05,-3e-05,-6e-05,-5e-05,4e-05,0.00012,6.0
27475.0,-0.00016,-0.00011,-5e-05,-3e-05,-6e-05,-5e-05,4e-05,0.00012,6.0
27476.0,-0.00016,-0.00011,-5e-05,-3e-05,-6e-05,-5e-05,4e-05,0.00012,6.0
27477.0,-0.00016,-0.00011,-5e-05,-3e-05,-6e-05,-5e-05,4e-05,0.00012,6.0
27478.0,-0.00016,-0.00011,-5e-05,-3e-05,-6e-05,-5e-05,4e-05,0.00012,6.0
27479.0,-0.00016,-0.00011,-5e-05,-3e-05,-6e-05,-5e-05,4e-05,0.00012,6.0
27480.0,-0.00016,-0.00011,-5e-05,-3e-05,-6e-05,-5e-05,4e-05,0.00012,6.0
27481.0,-0.00016,-0.00011,-5e-05,-3e-05,-6e-05,-5e-05,4e-05,0.00012,6.0
27482.0,-0.00016,-0.00011,-5e-05,-3e-05,-6e-05,-5e-05,4e-05,0.00012,6.0
27483.0,-0.00016,-0.00011,-5e-05,-3e-05,-6e-05,-5e-05,4e-05,0.00012,6.0
27484.0,-0.00016,-0.00011,-5e-05,-3e-05,-6e-05,-5e-05,4e-05,0.00012,6.0
27485.0,-0.00016,-0.00011,-5e-05,-3e-05,-6e-05,-5e-05,4e-05,0.00012,6.0
27486.0,-0.00016,-0.00011,-5e-05,-3e-05,-6e-05,-5e-05,4e-05,0.00012,6.0
27488.0,-0.00016,-0.00011,-5e-05,-3e-05,-6e-05,-5e-05,4e-05,0.00012,6.0
27489.0,0.00014,3e-05,0.0,4e-05,3e-05,0.0001,0.0001,-5e-05,6.0
27490.0,0.00025,0.00016,-2e-05,-2e-05,3e-05,5e-05,-3e-05,4e-05,6.0
27491.0,0.00025,0.00016,-2e-05,-2e-05,3e-05,5e-05,-3e-05,4e-05,6.0
27492.0,0.00025,0.00016,-2e-05,-2e-05,3e-05,5e-05,-3e-05,4e-05,6.0
27493.0,0.00025,0.00016,-2e-05,-2e-05,3e-05,5e-05,-3e-05,4e-05,6.0
27494.0,0.00025,0.00016,-2e-05,-2e-05,3e-05,5e-05,-3e-05,4e-05,6.0
27495.0,0.00025,0.00016,-2e-05,-2e-05,3e-05,5e-05,-3e-05,4e-05,6.0
27496.0,6e-05,2e-05,3e-05,-2e-05,-6e-05,-2e-05,0.00013,0.00025,6.0
27497.0,-7e-05,0.00017,9e-05,3e-05,8e-05,-4e-05,-0.00013,-0.00025,6.0
27498.0,-7e-05,0.00017,9e-05,3e-05,8e-05,-4e-05,-0.00013,-0.00025,6.0
27499.0,-7e-05,0.00017,9e-05,3e-05,8e-05,-4e-05,-0.00013,-0.00025,6.0
27500.0,-7e-05,0.00017,9e-05,3e-05,8e-05,-4e-05,-0.00013,-0.00025,6.0
27501.0,-7e-05,0.00017,9e-05,3e-05,8e-05,-4e-05,-0.00013,-0.00025,6.0
27502.0,-7e-05,0.00017,9e-05,3e-05,8e-05,-4e-05,-0.00013,-0.00025,6.0
27504.0,-7e-05,0.00017,9e-05,3e-05,8e-05,-4e-05,-0.00013,-0.00025,6.0
27505.0,-7e-05,0.00017,9e-05,3e-05,8e-05,-4e-05,-0.00013,-0.00025,6.0
27506.0,-7e-05,0.00017,9e-05,3e-05,8e-05,-4e-05,-0.00013,-0.00025,6.0
27507.0,-7e-05,0.00017,9e-05,3e-05,8e-05,-4e-05,-0.00013,-0.00025,6.0
27508.0,-7e-05,0.00017,9e-05,3e-05,8e-05,-4e-05,-0.00013,-0.00025,6.0
27509.0,-7e-05,0.00017,9e-05,3e-05,8e-05,-4e-05,-0.00013,-0.00025,6.0
27510.0,-7e-05,0.00017,9e-05,3e-05,8e-05,-4e-05,-0.00013,-0.00025,6.0
27511.0,-7e-05,0.00017,9e-05,3e-05,8e-05,-4e-05,-0.00013,-0.00025,6.0
27512.0,-7e-05,0.00017,9e-05,3e-05,8e-05,-4e-05,-0.00013,-0.00025,6.0
27513.0,-7e-05,0.00017,9e-05,3e-05,8e-05,-4e-05,-0.00013,-0.00025,6.0
27514.0,-7e-05,0.00017,9e-05,3e-05,8e-05,-4e-05,-0.00013,-0.00025,6.0
27515.0,-7e-05,0.00017,9e-05,3e-05,8e-05,-4e-05,-0.00013,-0.00025,6.0
27516.0,-7e-05,0.00017,9e-05,3e-05,8e-05,-4e-05,-0.00013,-0.00025,6.0
27517.0,-7e-05,0.00017,9e-05,3e-05,8e-05,-4e-05,-0.00013,-0.00025,6.0
27518.0,5e-05,-3e-05,-5e-05,-2e-05,1e-05,-9e-05,-4e-05,1e-05,6.0
27519.0,5e-05,-3e-05,-5e-05,-2e-05,1e-05,-9e-05,-4e-05,1e-05,6.0
27520.0,-0.00012,-2e-05,5e-05,5e-05,0.00019,0.00019,6e-05,-0.00024,6.0
27521.0,-0.00012,-2e-05,5e-05,5e-05,0.00019,0.00019,6e-05,-0.00024,6.0
27522.0,-0.00012,-2e-05,5e-05,5e-05,0.00019,0.00019,6e-05,-0.00024,6.0
27523.0,-0.00012,-2e-05,5e-05,5e-05,0.00019,0.00019,6e-05,-0.00024,6.0
27524.0,-0.00012,-2e-05,5e-05,5e-05,0.00019,0.00019,6e-05,-0.00024,6.0
27525.0,-0.00012,-2e-05,5e-05,5e-05,0.00019,0.00019,6e-05,-0.00024,6.0
27526.0,-0.00012,-2e-05,5e-05,5e-05,0.00019,0.00019,6e-05,-0.00024,6.0
27527.0,-0.00012,-2e-05,5e-05,5e-05,0.00019,0.00019,6e-05,-0.00024,6.0
27528.0,-0.00012,-2e-05,5e-05,5e-05,0.00019,0.00019,6e-05,-0.00024,6.0
27529.0,-0.00012,-2e-05,5e-05,5e-05,0.00019,0.00019,6e-05,-0.00024,6.0
27530.0,-0.00012,-2e-05,5e-05,5e-05,0.00019,0.00019,6e-05,-0.00024,6.0
27531.0,-0.00012,-2e-05,5e-05,5e-05,0.00019,0.00019,6e-05,-0.00024,6.0
27532.0,-0.00012,-2e-05,5e-05,5e-05,0.00019,0.00019,6e-05,-0.00024,6.0
27533.0,-0.00012,-2e-05,5e-05,5e-05,0.00019,0.00019,6e-05,-0.00024,6.0
27534.0,-0.00012,-2e-05,5e-05,5e-05,0.00019,0.00019,6e-05,-0.00024,6.0
27535.0,-0.00012,-2e-05,5e-05,5e-05,0.00019,0.00019,6e-05,-0.00024,6.0
27536.0,-0.00012,-2e-05,5e-05,5e-05,0.00019,0.00019,6e-05,-0.00024,6.0
27538.0,-0.00012,-2e-05,5e-05,5e-05,0.00019,0.00019,6e-05,-0.00024,6.0
27539.0,-0.00012,-2e-05,5e-05,5e-05,0.00019,0.00019,6e-05,-0.00024,6.0
27540.0,-0.00012,-2e-05,5e-05,5e-05,0.00019,0.00019,6e-05,-0.00024,6.0
27541.0,-0.00012,-2e-05,5e-05,5e-05,0.00019,0.00019,6e-05,-0.00024,6.0
27542.0,-0.00012,-2e-05,5e-05,5e-05,0.00019,0.00019,6e-05,-0.00024,6.0
27543.0,-0.00012,-2e-05,5e-05,5e-05,0.00019,0.00019,6e-05,-0.00024,6.0
27544.0,-0.00012,-2e-05,5e-05,5e-05,0.00019,0.00019,6e-05,-0.00024,6.0
27545.0,-0.00012,-2e-05,5e-05,5e-05,0.00019,0.00019,6e-05,-0.00024,6.0
27546.0,-0.00012,-2e-05,5e-05,5e-05,0.00019,0.00019,6e-05,-0.00024,6.0
27547.0,-0.00012,-2e-05,5e-05,5e-05,0.00019,0.00019,6e-05,-0.00024,6.0
27548.0,0.00019,0.0001,8e-05,0.0001,0.00015,0.00021,3e-05,0.00027,6.0
27549.0,0.00019,0.0001,8e-05,0.0001,0.00015,0.00021,3e-05,0.00027,6.0
27550.0,-0.00013,-0.0002,-2e-05,-1e-05,-9e-05,1e-05,3e-05,7e-05,6.0
27551.0,-0.00013,-0.0002,-2e-05,-1e-05,-9e-05,1e-05,3e-05,7e-05,6.0
27552.0,-0.00013,-0.0002,-2e-05,-1e-05,-9e-05,1e-05,3e-05,7e-05,6.0
27553.0,-0.00013,-0.0002,-2e-05,-1e-05,-9e-05,1e-05,3e-05,7e-05,6.0
27554.0,-0.00013,-0.0002,-2e-05,-1e-05,-9e-05,1e-05,3e-05,7e-05,6.0
27555.0,-0.00013,-0.0002,-2e-05,-1e-05,-9e-05,1e-05,3e-05,7e-05,6.0
27556.0,-0.00013,-0.0002,-2e-05,-1e-05,-9e-05,1e-05,3e-05,7e-05,6.0
27557.0,-0.00013,-0.0002,-2e-05,-1e-05,-9e-05,1e-05,3e-05,7e-05,6.0
27558.0,-0.00013,-0.0002,-2e-05,-1e-05,-9e-05,1e-05,3e-05,7e-05,6.0
27559.0,-0.00013,-0.0002,-2e-05,-1e-05,-9e-05,1e-05,3e-05,7e-05,6.0
27560.0,-0.00013,-0.0002,-2e-05,-1e-05,-9e-05,1e-05,3e-05,7e-05,6.0
27561.0,-0.00013,-0.0002,-2e-05,-1e-05,-9e-05,1e-05,3e-05,7e-05,6.0
27562.0,-0.00013,-0.0002,-2e-05,-1e-05,-9e-05,1e-05,3e-05,7e-05,6.0
27563.0,-0.00013,-0.0002,-2e-05,-1e-05,-9e-05,1e-05,3e-05,7e-05,6.0
27564.0,-0.00066,-0.00016,6e-05,9e-05,3e-05,-2e-05,-0.00036,-0.00102,6.0
27565.0,1e-05,6e-05,0.0,-3e-05,-4e-05,-2e-05,-4e-05,-9e-05,6.0
27566.0,1e-05,6e-05,0.0,-3e-05,-4e-05,-2e-05,-4e-05,-9e-05,6.0
27567.0,1e-05,6e-05,0.0,-3e-05,-4e-05,-2e-05,-4e-05,-9e-05,6.0
27568.0,1e-05,6e-05,0.0,-3e-05,-4e-05,-2e-05,-4e-05,-9e-05,6.0
27569.0,1e-05,6e-05,0.0,-3e-05,-4e-05,-2e-05,-4e-05,-9e-05,6.0
27570.0,1e-05,6e-05,0.0,-3e-05,-4e-05,-2e-05,-4e-05,-9e-05,6.0
27571.0,1e-05,6e-05,0.0,-3e-05,-4e-05,-2e-05,-4e-05,-9e-05,6.0
27572.0,1e-05,6e-05,0.0,-3e-05,-4e-05,-2e-05,-4e-05,-9e-05,6.0
27573.0,1e-05,6e-05,0.0,-3e-05,-4e-05,-2e-05,-4e-05,-9e-05,6.0
27574.0,1e-05,6e-05,0.0,-3e-05,-4e-05,-2e-05,-4e-05,-9e-05,6.0
27575.0,1e-05,6e-05,0.0,-3e-05,-4e-05,-2e-05,-4e-05,-9e-05,6.0
27576.0,1e-05,6e-05,0.0,-3e-05,-4e-05,-2e-05,-4e-05,-9e-05,6.0
27577.0,1e-05,6e-05,0.0,-3e-05,-4e-05,-2e-05,-4e-05,-9e-05,6.0
27578.0,1e-05,6e-05,0.0,-3e-05,-4e-05,-2e-05,-4e-05,-9e-05,6.0
27579.0,1e-05,6e-05,0.0,-3e-05,-4e-05,-2e-05,-4e-05,-9e-05,6.0
27580.0,1e-05,6e-05,0.0,-3e-05,-4e-05,-2e-05,-4e-05,-9e-05,6.0
27581.0,1e-05,6e-05,0.0,-3e-05,-4e-05,-2e-05,-4e-05,-9e-05,6.0
27582.0,1e-05,6e-05,0.0,-3e-05,-4e-05,-2e-05,-4e-05,-9e-05,6.0
27583.0,1e-05,6e-05,0.0,-3e-05,-4e-05,-2e-05,-4e-05,-9e-05,6.0
27584.0,1e-05,6e-05,0.0,-3e-05,-4e-05,-2e-05,-4e-05,-9e-05,6.0
27585.0,1e-05,6e-05,0.0,-3e-05,-4e-05,-2e-05,-4e-05,-9e-05,6.0
27586.0,5e-05,7e-05,-5e-05,-8e-05,-7e-05,1e-05,0.00014,-5e-05,6.0
27589.0,-0.00014,-2e-05,-6e-05,2e-05,3e-05,-2e-05,-0.00017,-0.00043,6.0
27590.0,-0.00014,-2e-05,-6e-05,2e-05,3e-05,-2e-05,-0.00017,-0.00043,6.0
27591.0,-0.00014,-2e-05,-6e-05,2e-05,3e-05,-2e-05,-0.00017,-0.00043,6.0
27592.0,-0.00014,-2e-05,-6e-05,2e-05,3e-05,-2e-05,-0.00017,-0.00043,6.0
27593.0,-0.00014,-2e-05,-6e-05,2e-05,3e-05,-2e-05,-0.00017,-0.00043,6.0
27594.0,-0.00014,-2e-05,-6e-05,2e-05,3e-05,-2e-05,-0.00017,-0.00043,6.0
27595.0,-0.00014,-2e-05,-6e-05,2e-05,3e-05,-2e-05,-0.00017,-0.00043,6.0
27596.0,-0.00014,-2e-05,-6e-05,2e-05,3e-05,-2e-05,-0.00017,-0.00043,6.0
27597.0,-0.00014,-2e-05,-6e-05,2e-05,3e-05,-2e-05,-0.00017,-0.00043,6.0
27598.0,-0.00014,-2e-05,-6e-05,2e-05,3e-05,-2e-05,-0.00017,-0.00043,6.0
27599.0,-0.00014,-2e-05,-6e-05,2e-05,3e-05,-2e-05,-0.00017,-0.00043,6.0
27600.0,-0.00014,-2e-05,-6e-05,2e-05,3e-05,-2e-05,-0.00017,-0.00043,6.0
27601.0,0.00014,0.00023,-9e-05,-0.00014,-0.00016,-0.00022,-0.00011,8e-05,6.0
27602.0,6e-05,-1e-05,-2e-05,0.0,-0.0001,-9e-05,-0.00011,0.00014,6.0
27603.0,6e-05,-1e-05,-2e-05,0.0,-0.0001,-9e-05,-0.00011,0.00014,6.0
27604.0,6e-05,-1e-05,-2e-05,0.0,-0.0001,-9e-05,-0.00011,0.00014,6.0
27605.0,6e-05,-1e-05,-2e-05,0.0,-0.0001,-9e-05,-0.00011,0.00014,6.0
27606.0,6e-05,-1e-05,-2e-05,0.0,-0.0001,-9e-05,-0.00011,0.00014,6.0
27607.0,6e-05,-1e-05,-2e-05,0.0,-0.0001,-9e-05,-0.00011,0.00014,6.0
27608.0,6e-05,-1e-05,-2e-05,0.0,-0.0001,-9e-05,-0.00011,0.00014,6.0
27609.0,6e-05,-1e-05,-2e-05,0.0,-0.0001,-9e-05,-0.00011,0.00014,6.0
27610.0,6e-05,-1e-05,-2e-05,0.0,-0.0001,-9e-05,-0.00011,0.00014,6.0
27611.0,6e-05,-1e-05,-2e-05,0.0,-0.0001,-9e-05,-0.00011,0.00014,6.0
27612.0,6e-05,-1e-05,-2e-05,0.0,-0.0001,-9e-05,-0.00011,0.00014,6.0
27613.0,6e-05,-1e-05,-2e-05,0.0,-0.0001,-9e-05,-0.00011,0.00014,6.0
27614.0,6e-05,-1e-05,-2e-05,0.0,-0.0001,-9e-05,-0.00011,0.00014,6.0
27615.0,0.00013,4e-05,-3e-05,-3e-05,2e-05,5e-05,0.00014,0.00019,6.0
27616.0,0.00013,4e-05,-3e-05,-3e-05,2e-05,5e-05,0.00014,0.00019,6.0
27617.0,0.00013,4e-05,-3e-05,-3e-05,2e-05,5e-05,0.00014,0.00019,6.0
27618.0,0.00013,4e-05,-3e-05,-3e-05,2e-05,5e-05,0.00014,0.00019,6.0
27619.0,0.00013,4e-05,-3e-05,-3e-05,2e-05,5e-05,0.00014,0.00019,6.0
27620.0,0.00013,4e-05,-3e-05,-3e-05,2e-05,5e-05,0.00014,0.00019,6.0
27621.0,0.00013,4e-05,-3e-05,-3e-05,2e-05,5e-05,0.00014,0.00019,6.0
27622.0,-1e-05,5e-05,4e-05,6e-05,6e-05,0.00017,0.00014,-0.00054,6.0
27623.0,-1e-05,5e-05,4e-05,6e-05,6e-05,0.00017,0.00014,-0.00054,6.0
27624.0,-1e-05,5e-05,4e-05,6e-05,6e-05,0.00017,0.00014,-0.00054,6.0
27625.0,-1e-05,5e-05,4e-05,6e-05,6e-05,0.00017,0.00014,-0.00054,6.0
27626.0,-1e-05,5e-05,4e-05,6e-05,6e-05,0.00017,0.00014,-0.00054,6.0
27627.0,-1e-05,5e-05,4e-05,6e-05,6e-05,0.00017,0.00014,-0.00054,6.0
27628.0,-1e-05,5e-05,4e-05,6e-05,6e-05,0.00017,0.00014,-0.00054,6.0
27629.0,-1e-05,5e-05,4e-05,6e-05,6e-05,0.00017,0.00014,-0.00054,6.0
27630.0,-1e-05,5e-05,4e-05,6e-05,6e-05,0.00017,0.00014,-0.00054,6.0
27631.0,-1e-05,5e-05,4e-05,6e-05,6e-05,0.00017,0.00014,-0.00054,6.0
27632.0,-1e-05,5e-05,4e-05,6e-05,6e-05,0.00017,0.00014,-0.00054,6.0
27633.0,-1e-05,5e-05,4e-05,6e-05,6e-05,0.00017,0.00014,-0.00054,6.0
27634.0,-1e-05,5e-05,4e-05,6e-05,6e-05,0.00017,0.00014,-0.00054,6.0
27635.0,-1e-05,5e-05,4e-05,6e-05,6e-05,0.00017,0.00014,-0.00054,6.0
27636.0,-1e-05,5e-05,4e-05,6e-05,6e-05,0.00017,0.00014,-0.00054,6.0
27639.0,-0.0001,-9e-05,6e-05,5e-05,0.00011,0.0,8e-05,0.0001,6.0
27640.0,4e-05,0.0,-3e-05,2e-05,8e-05,-4e-05,-1e-05,0.00019,6.0
27641.0,4e-05,0.0,-3e-05,2e-05,8e-05,-4e-05,-1e-05,0.00019,6.0
27642.0,4e-05,0.0,-3e-05,2e-05,8e-05,-4e-05,-1e-05,0.00019,6.0
27643.0,4e-05,0.0,-3e-05,2e-05,8e-05,-4e-05,-1e-05,0.00019,6.0
27644.0,4e-05,0.0,-3e-05,2e-05,8e-05,-4e-05,-1e-05,0.00019,6.0
27645.0,4e-05,0.0,-3e-05,2e-05,8e-05,-4e-05,-1e-05,0.00019,6.0
27646.0,4e-05,0.0,-3e-05,2e-05,8e-05,-4e-05,-1e-05,0.00019,6.0
27647.0,4e-05,0.0,-3e-05,2e-05,8e-05,-4e-05,-1e-05,0.00019,6.0
27648.0,4e-05,0.0,-3e-05,2e-05,8e-05,-4e-05,-1e-05,0.00019,6.0
27649.0,4e-05,0.0,-3e-05,2e-05,8e-05,-4e-05,-1e-05,0.00019,6.0
27650.0,4e-05,0.0,-3e-05,2e-05,8e-05,-4e-05,-1e-05,0.00019,6.0
27651.0,4e-05,0.0,-3e-05,2e-05,8e-05,-4e-05,-1e-05,0.00019,6.0
27652.0,4e-05,0.0,-3e-05,2e-05,8e-05,-4e-05,-1e-05,0.00019,6.0
27653.0,4e-05,0.0,-3e-05,2e-05,8e-05,-4e-05,-1e-05,0.00019,6.0
27654.0,4e-05,0.0,-3e-05,2e-05,8e-05,-4e-05,-1e-05,0.00019,6.0
27655.0,4e-05,0.0,-3e-05,2e-05,8e-05,-4e-05,-1e-05,0.00019,6.0
27656.0,4e-05,0.0,-3e-05,2e-05,8e-05,-4e-05,-1e-05,0.00019,6.0
27657.0,4e-05,0.0,-3e-05,2e-05,8e-05,-4e-05,-1e-05,0.00019,6.0
27658.0,4e-05,0.0,-3e-05,2e-05,8e-05,-4e-05,-1e-05,0.00019,6.0
27659.0,4e-05,0.0,-3e-05,2e-05,8e-05,-4e-05,-1e-05,0.00019,6.0
27660.0,0.00033,1e-05,0.0,-4e-05,-0.00012,-0.00018,-0.00017,6e-05,6.0
27661.0,0.00033,1e-05,0.0,-4e-05,-0.00012,-0.00018,-0.00017,6e-05,6.0
27662.0,0.00033,1e-05,0.0,-4e-05,-0.00012,-0.00018,-0.00017,6e-05,6.0
27663.0,0.00033,1e-05,0.0,-4e-05,-0.00012,-0.00018,-0.00017,6e-05,6.0
27664.0,0.00033,1e-05,0.0,-4e-05,-0.00012,-0.00018,-0.00017,6e-05,6.0
27665.0,0.00033,1e-05,0.0,-4e-05,-0.00012,-0.00018,-0.00017,6e-05,6.0
27666.0,0.00033,1e-05,0.0,-4e-05,-0.00012,-0.00018,-0.00017,6e-05,6.0
27667.0,0.00033,1e-05,0.0,-4e-05,-0.00012,-0.00018,-0.00017,6e-05,6.0
27668.0,0.00033,1e-05,0.0,-4e-05,-0.00012,-0.00018,-0.00017,6e-05,6.0
27669.0,0.00033,1e-05,0.0,-4e-05,-0.00012,-0.00018,-0.00017,6e-05,6.0
27670.0,0.00033,1e-05,0.0,-4e-05,-0.00012,-0.00018,-0.00017,6e-05,6.0
27671.0,0.00033,1e-05,0.0,-4e-05,-0.00012,-0.00018,-0.00017,6e-05,6.0
27672.0,0.00033,1e-05,0.0,-4e-05,-0.00012,-0.00018,-0.00017,6e-05,6.0
27673.0,0.00033,1e-05,0.0,-4e-05,-0.00012,-0.00018,-0.00017,6e-05,6.0
27674.0,0.00033,1e-05,0.0,-4e-05,-0.00012,-0.00018,-0.00017,6e-05,6.0
27675.0,0.00033,1e-05,0.0,-4e-05,-0.00012,-0.00018,-0.00017,6e-05,6.0
27676.0,1e-05,8e-05,3e-05,2e-05,6e-05,8e-05,0.00028,0.00017,6.0
27677.0,1e-05,8e-05,3e-05,2e-05,6e-05,8e-05,0.00028,0.00017,6.0
27678.0,1e-05,8e-05,3e-05,2e-05,6e-05,8e-05,0.00028,0.00017,6.0
27679.0,1e-05,8e-05,3e-05,2e-05,6e-05,8e-05,0.00028,0.00017,6.0
27680.0,1e-05,8e-05,3e-05,2e-05,6e-05,8e-05,0.00028,0.00017,6.0
27681.0,1e-05,8e-05,3e-05,2e-05,6e-05,8e-05,0.00028,0.00017,6.0
27682.0,1e-05,8e-05,3e-05,2e-05,6e-05,8e-05,0.00028,0.00017,6.0
27683.0,0.00013,-2e-05,0.0,1e-05,-3e-05,4e-05,-1e-05,0.00027,6.0
27684.0,0.00013,-2e-05,0.0,1e-05,-3e-05,4e-05,-1e-05,0.00027,6.0
27685.0,0.00013,-2e-05,0.0,1e-05,-3e-05,4e-05,-1e-05,0.00027,6.0
27686.0,0.00013,-2e-05,0.0,1e-05,-3e-05,4e-05,-1e-05,0.00027,6.0
27689.0,0.00013,-2e-05,0.0,1e-05,-3e-05,4e-05,-1e-05,0.00027,6.0
27690.0,0.00013,-2e-05,0.0,1e-05,-3e-05,4e-05,-1e-05,0.00027,6.0
27691.0,0.00013,-2e-05,0.0,1e-05,-3e-05,4e-05,-1e-05,0.00027,6.0
27692.0,0.00011,-1e-05,-7e-05,-5e-05,4e-05,0.0,7e-05,0.0,6.0
27693.0,0.00011,-1e-05,-7e-05,-5e-05,4e-05,0.0,7e-05,0.0,6.0
27694.0,0.00011,-1e-05,-7e-05,-5e-05,4e-05,0.0,7e-05,0.0,6.0
27695.0,0.00011,-1e-05,-7e-05,-5e-05,4e-05,0.0,7e-05,0.0,6.0
27696.0,0.00011,-1e-05,-7e-05,-5e-05,4e-05,0.0,7e-05,0.0,6.0
27697.0,0.00011,-1e-05,-7e-05,-5e-05,4e-05,0.0,7e-05,0.0,6.0
27698.0,0.0,-6e-05,1e-05,-1e-05,0.0,5e-05,5e-05,-2e-05,6.0
27699.0,0.0,-6e-05,1e-05,-1e-05,0.0,5e-05,5e-05,-2e-05,6.0
27700.0,0.00013,-1e-05,-1e-05,-1e-05,-2e-05,2e-05,0.00013,0.00033,6.0
27701.0,0.00013,-1e-05,-1e-05,-1e-05,-2e-05,2e-05,0.00013,0.00033,6.0
27702.0,0.00013,-1e-05,-1e-05,-1e-05,-2e-05,2e-05,0.00013,0.00033,6.0
27703.0,0.00013,-1e-05,-1e-05,-1e-05,-2e-05,2e-05,0.00013,0.00033,6.0
27704.0,0.00013,-1e-05,-1e-05,-1e-05,-2e-05,2e-05,0.00013,0.00033,6.0
27705.0,0.00013,-1e-05,-1e-05,-1e-05,-2e-05,2e-05,0.00013,0.00033,6.0
27706.0,0.00013,-1e-05,-1e-05,-1e-05,-2e-05,2e-05,0.00013,0.00033,6.0
27707.0,0.00013,-1e-05,-1e-05,-1e-05,-2e-05,2e-05,0.00013,0.00033,6.0
27708.0,0.00013,-1e-05,-1e-05,-1e-05,-2e-05,2e-05,0.00013,0.00033,6.0
27709.0,0.00013,-1e-05,-1e-05,-1e-05,-2e-05,2e-05,0.00013,0.00033,6.0
27710.0,0.00013,-1e-05,-1e-05,-1e-05,-2e-05,2e-05,0.00013,0.00033,6.0
27711.0,0.00013,-1e-05,-1e-05,-1e-05,-2e-05,2e-05,0.00013,0.00033,6.0
27712.0,0.00013,-1e-05,-1e-05,-1e-05,-2e-05,2e-05,0.00013,0.00033,6.0
27713.0,0.00013,-1e-05,-1e-05,-1e-05,-2e-05,2e-05,0.00013,0.00033,6.0
27714.0,0.00013,-1e-05,-1e-05,-1e-05,-2e-05,2e-05,0.00013,0.00033,6.0
27715.0,0.00013,-1e-05,-1e-05,-1e-05,-2e-05,2e-05,0.00013,0.00033,6.0
27716.0,0.00013,-1e-05,-1e-05,-1e-05,-2e-05,2e-05,0.00013,0.00033,6.0
27717.0,0.00013,-1e-05,-1e-05,-1e-05,-2e-05,2e-05,0.00013,0.00033,6.0
27718.0,0.00013,-1e-05,-1e-05,-1e-05,-2e-05,2e-05,0.00013,0.00033,6.0
27719.0,0.00013,-1e-05,-1e-05,-1e-05,-2e-05,2e-05,0.00013,0.00033,6.0
27720.0,0.00013,-1e-05,-1e-05,-1e-05,-2e-05,2e-05,0.00013,0.00033,6.0
27721.0,0.0,-4e-05,-4e-05,-3e-05,-9e-05,-7e-05,-1e-05,1e-05,6.0
27722.0,1e-05,4e-05,5e-05,2e-05,6e-05,6e-05,-0.00019,0.0,6.0
27723.0,1e-05,4e-05,5e-05,2e-05,6e-05,6e-05,-0.00019,0.0,6.0
27724.0,1e-05,4e-05,5e-05,2e-05,6e-05,6e-05,-0.00019,0.0,6.0
27725.0,1e-05,4e-05,5e-05,2e-05,6e-05,6e-05,-0.00019,0.0,6.0
27726.0,1e-05,4e-05,5e-05,2e-05,6e-05,6e-05,-0.00019,0.0,6.0
27727.0,1e-05,4e-05,5e-05,2e-05,6e-05,6e-05,-0.00019,0.0,6.0
27728.0,1e-05,4e-05,5e-05,2e-05,6e-05,6e-05,-0.00019,0.0,6.0
27729.0,1e-05,4e-05,5e-05,2e-05,6e-05,6e-05,-0.00019,0.0,6.0
27730.0,1e-05,4e-05,5e-05,2e-05,6e-05,6e-05,-0.00019,0.0,6.0
27731.0,1e-05,4e-05,5e-05,2e-05,6e-05,6e-05,-0.00019,0.0,6.0
27732.0,1e-05,4e-05,5e-05,2e-05,6e-05,6e-05,-0.00019,0.0,6.0
27733.0,1e-05,4e-05,5e-05,2e-05,6e-05,6e-05,-0.00019,0.0,6.0
27734.0,1e-05,4e-05,5e-05,2e-05,6e-05,6e-05,-0.00019,0.0,6.0
27735.0,1e-05,4e-05,5e-05,2e-05,6e-05,6e-05,-0.00019,0.0,6.0
27736.0,1e-05,4e-05,5e-05,2e-05,6e-05,6e-05,-0.00019,0.0,6.0
27738.0,1e-05,4e-05,5e-05,2e-05,6e-05,6e-05,-0.00019,0.0,6.0
27739.0,1e-05,4e-05,5e-05,2e-05,6e-05,6e-05,-0.00019,0.0,6.0
27740.0,1e-05,4e-05,5e-05,2e-05,6e-05,6e-05,-0.00019,0.0,6.0
27741.0,1e-05,4e-05,5e-05,2e-05,6e-05,6e-05,-0.00019,0.0,6.0
27742.0,1e-05,4e-05,5e-05,2e-05,6e-05,6e-05,-0.00019,0.0,6.0
27743.0,-0.00024,-0.00019,1e-05,0.0,7e-05,8e-05,0.00014,-0.00024,6.0
27744.0,-0.00024,-0.00019,1e-05,0.0,7e-05,8e-05,0.00014,-0.00024,6.0
27745.0,-0.00017,-0.00011,-8e-05,-6e-05,-0.0001,-9e-05,-0.00023,-0.00024,6.0
27746.0,-0.00017,-0.00011,-8e-05,-6e-05,-0.0001,-9e-05,-0.00023,-0.00024,6.0
27747.0,-0.00017,-0.00011,-8e-05,-6e-05,-0.0001,-9e-05,-0.00023,-0.00024,6.0
27748.0,-0.00017,-0.00011,-8e-05,-6e-05,-0.0001,-9e-05,-0.00023,-0.00024,6.0
27749.0,-0.00017,-0.00011,-8e-05,-6e-05,-0.0001,-9e-05,-0.00023,-0.00024,6.0
27750.0,-0.00017,-0.00011,-8e-05,-6e-05,-0.0001,-9e-05,-0.00023,-0.00024,6.0
27751.0,-0.00017,-0.00011,-8e-05,-6e-05,-0.0001,-9e-05,-0.00023,-0.00024,6.0
27752.0,-0.00017,-0.00011,-8e-05,-6e-05,-0.0001,-9e-05,-0.00023,-0.00024,6.0
27753.0,-0.00017,-0.00011,-8e-05,-6e-05,-0.0001,-9e-05,-0.00023,-0.00024,6.0
27754.0,-0.00017,-0.00011,-8e-05,-6e-05,-0.0001,-9e-05,-0.00023,-0.00024,6.0
27755.0,-0.00017,-0.00011,-8e-05,-6e-05,-0.0001,-9e-05,-0.00023,-0.00024,6.0
27756.0,-0.00017,-0.00011,-8e-05,-6e-05,-0.0001,-9e-05,-0.00023,-0.00024,6.0
27757.0,-0.00017,-0.00011,-8e-05,-6e-05,-0.0001,-9e-05,-0.00023,-0.00024,6.0
27758.0,-0.00017,-0.00011,-8e-05,-6e-05,-0.0001,-9e-05,-0.00023,-0.00024,6.0
27759.0,-0.00017,-0.00011,-8e-05,-6e-05,-0.0001,-9e-05,-0.00023,-0.00024,6.0
27760.0,-0.00017,-0.00011,-8e-05,-6e-05,-0.0001,-9e-05,-0.00023,-0.00024,6.0
27761.0,-0.00017,-0.00011,-8e-05,-6e-05,-0.0001,-9e-05,-0.00023,-0.00024,6.0
27762.0,-0.00017,-0.00011,-8e-05,-6e-05,-0.0001,-9e-05,-0.00023,-0.00024,6.0
27763.0,-0.00017,-0.00011,-8e-05,-6e-05,-0.0001,-9e-05,-0.00023,-0.00024,6.0
27764.0,-0.00017,-0.00011,-8e-05,-6e-05,-0.0001,-9e-05,-0.00023,-0.00024,6.0
27765.0,-0.00017,-0.00011,-8e-05,-6e-05,-0.0001,-9e-05,-0.00023,-0.00024,6.0
27766.0,-5e-05,2e-05,0.0,0.0,1e-05,7e-05,0.00019,5e-05,6.0
27767.0,-6e-05,-5e-05,4e-05,4e-05,9e-05,4e-05,-0.00013,-0.00015,6.0
27768.0,-6e-05,-5e-05,4e-05,4e-05,9e-05,4e-05,-0.00013,-0.00015,6.0
27769.0,-6e-05,-5e-05,4e-05,4e-05,9e-05,4e-05,-0.00013,-0.00015,6.0
27770.0,-6e-05,-5e-05,4e-05,4e-05,9e-05,4e-05,-0.00013,-0.00015,6.0
27771.0,-6e-05,-5e-05,4e-05,4e-05,9e-05,4e-05,-0.00013,-0.00015,6.0
27772.0,-6e-05,-5e-05,4e-05,4e-05,9e-05,4e-05,-0.00013,-0.00015,6.0
27773.0,-6e-05,-5e-05,4e-05,4e-05,9e-05,4e-05,-0.00013,-0.00015,6.0
27774.0,-6e-05,-5e-05,4e-05,4e-05,9e-05,4e-05,-0.00013,-0.00015,6.0
27775.0,-6e-05,-5e-05,4e-05,4e-05,9e-05,4e-05,-0.00013,-0.00015,6.0
27776.0,-6e-05,-5e-05,4e-05,4e-05,9e-05,4e-05,-0.00013,-0.00015,6.0
27777.0,-6e-05,-5e-05,4e-05,4e-05,9e-05,4e-05,-0.00013,-0.00015,6.0
27778.0,-6e-05,-5e-05,4e-05,4e-05,9e-05,4e-05,-0.00013,-0.00015,6.0
27779.0,-6e-05,-5e-05,4e-05,4e-05,9e-05,4e-05,-0.00013,-0.00015,6.0
27780.0,-6e-05,-5e-05,4e-05,4e-05,9e-05,4e-05,-0.00013,-0.00015,6.0
27781.0,-0.00017,-0.00019,-7e-05,-6e-05,-4e-05,3e-05,8e-05,0.00022,6.0
27782.0,-0.00024,-0.00016,-0.00012,-0.00012,-0.00017,-0.00018,-0.0002,-0.00012,6.0
27783.0,-0.00024,-0.00016,-0.00012,-0.00012,-0.00017,-0.00018,-0.0002,-0.00012,6.0
27784.0,-0.00024,-0.00016,-0.00012,-0.00012,-0.00017,-0.00018,-0.0002,-0.00012,6.0
27785.0,-0.00024,-0.00016,-0.00012,-0.00012,-0.00017,-0.00018,-0.0002,-0.00012,6.0
27786.0,-0.00024,-0.00016,-0.00012,-0.00012,-0.00017,-0.00018,-0.0002,-0.00012,6.0
27788.0,-0.00024,-0.00016,-0.00012,-0.00012,-0.00017,-0.00018,-0.0002,-0.00012,6.0
27789.0,-0.00024,-0.00016,-0.00012,-0.00012,-0.00017,-0.00018,-0.0002,-0.00012,6.0
27790.0,-0.00024,-0.00016,-0.00012,-0.00012,-0.00017,-0.00018,-0.0002,-0.00012,6.0
27791.0,-0.00024,-0.00016,-0.00012,-0.00012,-0.00017,-0.00018,-0.0002,-0.00012,6.0
27792.0,-0.00024,-0.00016,-0.00012,-0.00012,-0.00017,-0.00018,-0.0002,-0.00012,6.0
27793.0,-0.00024,-0.00016,-0.00012,-0.00012,-0.00017,-0.00018,-0.0002,-0.00012,6.0
27794.0,-0.00024,-0.00016,-0.00012,-0.00012,-0.00017,-0.00018,-0.0002,-0.00012,6.0
27795.0,0.00014,8e-05,-4e-05,-6e-05,-0.00011,-9e-05,-2e-05,5e-05,6.0
27796.0,0.00014,8e-05,-4e-05,-6e-05,-0.00011,-9e-05,-2e-05,5e-05,6.0
27797.0,0.00014,8e-05,-4e-05,-6e-05,-0.00011,-9e-05,-2e-05,5e-05,6.0
27798.0,0.00014,8e-05,-4e-05,-6e-05,-0.00011,-9e-05,-2e-05,5e-05,6.0
27799.0,0.00014,8e-05,-4e-05,-6e-05,-0.00011,-9e-05,-2e-05,5e-05,6.0
27800.0,0.00014,8e-05,-4e-05,-6e-05,-0.00011,-9e-05,-2e-05,5e-05,6.0
27801.0,0.00014,8e-05,-4e-05,-6e-05,-0.00011,-9e-05,-2e-05,5e-05,6.0
27802.0,-6e-05,-6e-05,-2e-05,-7e-05,-0.00021,-0.00011,8e-05,0.00029,6.0
27803.0,-6e-05,-6e-05,-2e-05,-7e-05,-0.00021,-0.00011,8e-05,0.00029,6.0
27804.0,-6e-05,-6e-05,-2e-05,-7e-05,-0.00021,-0.00011,8e-05,0.00029,6.0
27805.0,-6e-05,-6e-05,-2e-05,-7e-05,-0.00021,-0.00011,8e-05,0.00029,6.0
27806.0,-6e-05,-6e-05,-2e-05,-7e-05,-0.00021,-0.00011,8e-05,0.00029,6.0
27807.0,-6e-05,-6e-05,-2e-05,-7e-05,-0.00021,-0.00011,8e-05,0.00029,6.0
27808.0,-6e-05,-6e-05,-2e-05,-7e-05,-0.00021,-0.00011,8e-05,0.00029,6.0
27809.0,-6e-05,-6e-05,-2e-05,-7e-05,-0.00021,-0.00011,8e-05,0.00029,6.0
27810.0,-6e-05,-6e-05,-2e-05,-7e-05,-0.00021,-0.00011,8e-05,0.00029,6.0
27811.0,-6e-05,-6e-05,-2e-05,-7e-05,-0.00021,-0.00011,8e-05,0.00029,6.0
27812.0,-6e-05,-6e-05,-2e-05,-7e-05,-0.00021,-0.00011,8e-05,0.00029,6.0
27813.0,-6e-05,-6e-05,-2e-05,-7e-05,-0.00021,-0.00011,8e-05,0.00029,6.0
27814.0,-6e-05,-6e-05,-2e-05,-7e-05,-0.00021,-0.00011,8e-05,0.00029,6.0
27815.0,-6e-05,-6e-05,-2e-05,-7e-05,-0.00021,-0.00011,8e-05,0.00029,6.0
27816.0,-6e-05,-6e-05,-2e-05,-7e-05,-0.00021,-0.00011,8e-05,0.00029,6.0
27817.0,-6e-05,-6e-05,-2e-05,-7e-05,-0.00021,-0.00011,8e-05,0.00029,6.0
27818.0,-6e-05,-6e-05,-2e-05,-7e-05,-0.00021,-0.00011,8e-05,0.00029,6.0
27819.0,-6e-05,-6e-05,-2e-05,-7e-05,-0.00021,-0.00011,8e-05,0.00029,6.0
27820.0,-6e-05,-6e-05,-2e-05,-7e-05,-0.00021,-0.00011,8e-05,0.00029,6.0
27821.0,-6e-05,-6e-05,-2e-05,-7e-05,-0.00021,-0.00011,8e-05,0.00029,6.0
27822.0,-6e-05,-6e-05,-2e-05,-7e-05,-0.00021,-0.00011,8e-05,0.00029,6.0
27823.0,-6e-05,-6e-05,-2e-05,-7e-05,-0.00021,-0.00011,8e-05,0.00029,6.0
27824.0,-6e-05,-6e-05,-2e-05,-7e-05,-0.00021,-0.00011,8e-05,0.00029,6.0
27825.0,-6e-05,-6e-05,-2e-05,-7e-05,-0.00021,-0.00011,8e-05,0.00029,6.0
27826.0,-5e-05,5e-05,3e-05,0.0,2e-05,0.0,-8e-05,-0.00023,6.0
27828.0,2e-05,-2e-05,-8e-05,-2e-05,-6e-05,-2e-05,-1e-05,-2e-05,6.0
27829.0,2e-05,-2e-05,-8e-05,-2e-05,-6e-05,-2e-05,-1e-05,-2e-05,6.0
27830.0,2e-05,-2e-05,-8e-05,-2e-05,-6e-05,-2e-05,-1e-05,-2e-05,6.0
27831.0,2e-05,-2e-05,-8e-05,-2e-05,-6e-05,-2e-05,-1e-05,-2e-05,6.0
27832.0,2e-05,-2e-05,-8e-05,-2e-05,-6e-05,-2e-05,-1e-05,-2e-05,6.0
27833.0,2e-05,-2e-05,-8e-05,-2e-05,-6e-05,-2e-05,-1e-05,-2e-05,6.0
27834.0,2e-05,-2e-05,-8e-05,-2e-05,-6e-05,-2e-05,-1e-05,-2e-05,6.0
27835.0,2e-05,-2e-05,-8e-05,-2e-05,-6e-05,-2e-05,-1e-05,-2e-05,6.0
27836.0,2e-05,-2e-05,-8e-05,-2e-05,-6e-05,-2e-05,-1e-05,-2e-05,6.0
27839.0,2e-05,-2e-05,-8e-05,-2e-05,-6e-05,-2e-05,-1e-05,-2e-05,6.0
27840.0,2e-05,-2e-05,-8e-05,-2e-05,-6e-05,-2e-05,-1e-05,-2e-05,6.0
27841.0,1e-05,9e-05,5e-05,8e-05,0.00016,9e-05,7e-05,0.00018,6.0
27842.0,1e-05,9e-05,5e-05,8e-05,0.00016,9e-05,7e-05,0.00018,6.0
27843.0,0.00012,0.0,5e-05,2e-05,-1e-05,-6e-05,-0.00015,3e-05,6.0
27844.0,0.00012,0.0,5e-05,2e-05,-1e-05,-6e-05,-0.00015,3e-05,6.0
27845.0,0.00012,0.0,5e-05,2e-05,-1e-05,-6e-05,-0.00015,3e-05,6.0
27846.0,0.00012,0.0,5e-05,2e-05,-1e-05,-6e-05,-0.00015,3e-05,6.0
27847.0,0.00012,0.0,5e-05,2e-05,-1e-05,-6e-05,-0.00015,3e-05,6.0
27848.0,0.00012,0.0,5e-05,2e-05,-1e-05,-6e-05,-0.00015,3e-05,6.0
27849.0,0.00012,0.0,5e-05,2e-05,-1e-05,-6e-05,-0.00015,3e-05,6.0
27850.0,0.00012,0.0,5e-05,2e-05,-1e-05,-6e-05,-0.00015,3e-05,6.0
27851.0,0.00012,0.0,5e-05,2e-05,-1e-05,-6e-05,-0.00015,3e-05,6.0
27852.0,0.00012,0.0,5e-05,2e-05,-1e-05,-6e-05,-0.00015,3e-05,6.0
27853.0,0.00012,0.0,5e-05,2e-05,-1e-05,-6e-05,-0.00015,3e-05,6.0
27854.0,0.00012,0.0,5e-05,2e-05,-1e-05,-6e-05,-0.00015,3e-05,6.0
27855.0,0.00012,0.0,5e-05,2e-05,-1e-05,-6e-05,-0.00015,3e-05,6.0
27856.0,0.00012,0.0,5e-05,2e-05,-1e-05,-6e-05,-0.00015,3e-05,6.0
27857.0,0.00012,0.0,5e-05,2e-05,-1e-05,-6e-05,-0.00015,3e-05,6.0
27858.0,0.00012,0.0,5e-05,2e-05,-1e-05,-6e-05,-0.00015,3e-05,6.0
27859.0,0.00012,0.0,5e-05,2e-05,-1e-05,-6e-05,-0.00015,3e-05,6.0
27860.0,0.00012,0.0,5e-05,2e-05,-1e-05,-6e-05,-0.00015,3e-05,6.0
27861.0,0.00012,0.0,5e-05,2e-05,-1e-05,-6e-05,-0.00015,3e-05,6.0
27862.0,0.00012,0.0,5e-05,2e-05,-1e-05,-6e-05,-0.00015,3e-05,6.0
27863.0,7e-05,6e-05,1e-05,3e-05,-1e-05,-2e-05,-0.00014,-2e-05,6.0
27864.0,7e-05,6e-05,1e-05,3e-05,-1e-05,-2e-05,-0.00014,-2e-05,6.0
27865.0,0.00013,4e-05,0.0,-1e-05,0.0,-6e-05,0.00015,0.00034,6.0
27866.0,0.00013,4e-05,0.0,-1e-05,0.0,-6e-05,0.00015,0.00034,6.0
27867.0,0.00013,4e-05,0.0,-1e-05,0.0,-6e-05,0.00015,0.00034,6.0
27868.0,0.00013,4e-05,0.0,-1e-05,0.0,-6e-05,0.00015,0.00034,6.0
27869.0,0.00013,4e-05,0.0,-1e-05,0.0,-6e-05,0.00015,0.00034,6.0
27870.0,0.00013,4e-05,0.0,-1e-05,0.0,-6e-05,0.00015,0.00034,6.0
27871.0,0.00013,4e-05,0.0,-1e-05,0.0,-6e-05,0.00015,0.00034,6.0
27872.0,0.00013,4e-05,0.0,-1e-05,0.0,-6e-05,0.00015,0.00034,6.0
27873.0,0.00013,4e-05,0.0,-1e-05,0.0,-6e-05,0.00015,0.00034,6.0
27874.0,0.00013,4e-05,0.0,-1e-05,0.0,-6e-05,0.00015,0.00034,6.0
27875.0,0.00013,4e-05,0.0,-1e-05,0.0,-6e-05,0.00015,0.00034,6.0
27876.0,0.00013,4e-05,0.0,-1e-05,0.0,-6e-05,0.00015,0.00034,6.0
27877.0,0.00013,4e-05,0.0,-1e-05,0.0,-6e-05,0.00015,0.00034,6.0
27878.0,3e-05,3e-05,-5e-05,1e-05,5e-05,-5e-05,-0.0002,-0.00017,6.0
27879.0,3e-05,3e-05,-5e-05,1e-05,5e-05,-5e-05,-0.0002,-0.00017,6.0
27880.0,1e-05,-3e-05,-6e-05,-6e-05,-4e-05,-8e-05,-1e-05,-0.0001,6.0
27881.0,1e-05,-3e-05,-6e-05,-6e-05,-4e-05,-8e-05,-1e-05,-0.0001,6.0
27882.0,1e-05,-3e-05,-6e-05,-6e-05,-4e-05,-8e-05,-1e-05,-0.0001,6.0
27883.0,1e-05,-3e-05,-6e-05,-6e-05,-4e-05,-8e-05,-1e-05,-0.0001,6.0
27884.0,1e-05,-3e-05,-6e-05,-6e-05,-4e-05,-8e-05,-1e-05,-0.0001,6.0
27885.0,1e-05,-3e-05,-6e-05,-6e-05,-4e-05,-8e-05,-1e-05,-0.0001,6.0
27886.0,1e-05,-3e-05,-6e-05,-6e-05,-4e-05,-8e-05,-1e-05,-0.0001,6.0
27889.0,1e-05,-3e-05,-6e-05,-6e-05,-4e-05,-8e-05,-1e-05,-0.0001,6.0
27890.0,1e-05,-3e-05,-6e-05,-6e-05,-4e-05,-8e-05,-1e-05,-0.0001,6.0
27891.0,1e-05,-3e-05,-6e-05,-6e-05,-4e-05,-8e-05,-1e-05,-0.0001,6.0
27892.0,1e-05,-3e-05,-6e-05,-6e-05,-4e-05,-8e-05,-1e-05,-0.0001,6.0
27893.0,1e-05,-3e-05,-6e-05,-6e-05,-4e-05,-8e-05,-1e-05,-0.0001,6.0
27894.0,1e-05,-3e-05,-6e-05,-6e-05,-4e-05,-8e-05,-1e-05,-0.0001,6.0
27895.0,1e-05,-3e-05,-6e-05,-6e-05,-4e-05,-8e-05,-1e-05,-0.0001,6.0
27896.0,1e-05,-3e-05,-6e-05,-6e-05,-4e-05,-8e-05,-1e-05,-0.0001,6.0
27897.0,1e-05,-3e-05,-6e-05,-6e-05,-4e-05,-8e-05,-1e-05,-0.0001,6.0
27898.0,1e-05,-3e-05,-6e-05,-6e-05,-4e-05,-8e-05,-1e-05,-0.0001,6.0
27899.0,1e-05,-3e-05,-6e-05,-6e-05,-4e-05,-8e-05,-1e-05,-0.0001,6.0
27900.0,1e-05,-3e-05,-6e-05,-6e-05,-4e-05,-8e-05,-1e-05,-0.0001,6.0
27901.0,-0.00019,-0.00013,1e-05,0.0,5e-05,4e-05,2e-05,-4e-05,6.0
27902.0,-0.00014,8e-05,0.00017,9e-05,6e-05,3e-05,-0.0001,-0.00064,6.0
27903.0,-0.00014,8e-05,0.00017,9e-05,6e-05,3e-05,-0.0001,-0.00064,6.0
27904.0,-0.00014,8e-05,0.00017,9e-05,6e-05,3e-05,-0.0001,-0.00064,6.0
27905.0,-0.00014,8e-05,0.00017,9e-05,6e-05,3e-05,-0.0001,-0.00064,6.0
27906.0,-0.00014,8e-05,0.00017,9e-05,6e-05,3e-05,-0.0001,-0.00064,6.0
27907.0,-0.00014,8e-05,0.00017,9e-05,6e-05,3e-05,-0.0001,-0.00064,6.0
27908.0,-0.00014,8e-05,0.00017,9e-05,6e-05,3e-05,-0.0001,-0.00064,6.0
27909.0,-0.00014,8e-05,0.00017,9e-05,6e-05,3e-05,-0.0001,-0.00064,6.0
27910.0,-0.00014,8e-05,0.00017,9e-05,6e-05,3e-05,-0.0001,-0.00064,6.0
27911.0,-0.00014,8e-05,0.00017,9e-05,6e-05,3e-05,-0.0001,-0.00064,6.0
27912.0,-0.00014,8e-05,0.00017,9e-05,6e-05,3e-05,-0.0001,-0.00064,6.0
27913.0,-0.00014,8e-05,0.00017,9e-05,6e-05,3e-05,-0.0001,-0.00064,6.0
27914.0,-0.00014,8e-05,0.00017,9e-05,6e-05,3e-05,-0.0001,-0.00064,6.0
27915.0,-9e-05,-0.00012,-0.00012,-7e-05,-5e-05,-5e-05,-0.00015,-9e-05,6.0
27916.0,-9e-05,-0.00012,-0.00012,-7e-05,-5e-05,-5e-05,-0.00015,-9e-05,6.0
27917.0,-9e-05,-0.00012,-0.00012,-7e-05,-5e-05,-5e-05,-0.00015,-9e-05,6.0
27918.0,-9e-05,-0.00012,-0.00012,-7e-05,-5e-05,-5e-05,-0.00015,-9e-05,6.0
27919.0,-9e-05,-0.00012,-0.00012,-7e-05,-5e-05,-5e-05,-0.00015,-9e-05,6.0
27920.0,-9e-05,-0.00012,-0.00012,-7e-05,-5e-05,-5e-05,-0.00015,-9e-05,6.0
27921.0,-9e-05,-0.00012,-0.00012,-7e-05,-5e-05,-5e-05,-0.00015,-9e-05,6.0
27922.0,-0.00013,4e-05,6e-05,3e-05,9e-05,4e-05,-0.00015,-0.00025,6.0
27923.0,-0.00013,4e-05,6e-05,3e-05,9e-05,4e-05,-0.00015,-0.00025,6.0
27924.0,-0.00013,4e-05,6e-05,3e-05,9e-05,4e-05,-0.00015,-0.00025,6.0
27925.0,-0.00013,4e-05,6e-05,3e-05,9e-05,4e-05,-0.00015,-0.00025,6.0
27926.0,-0.00013,4e-05,6e-05,3e-05,9e-05,4e-05,-0.00015,-0.00025,6.0
27927.0,-0.00013,4e-05,6e-05,3e-05,9e-05,4e-05,-0.00015,-0.00025,6.0
27928.0,-0.00013,4e-05,6e-05,3e-05,9e-05,4e-05,-0.00015,-0.00025,6.0
27929.0,-0.00013,4e-05,6e-05,3e-05,9e-05,4e-05,-0.00015,-0.00025,6.0
27930.0,-0.00013,4e-05,6e-05,3e-05,9e-05,4e-05,-0.00015,-0.00025,6.0
27931.0,-0.00013,4e-05,6e-05,3e-05,9e-05,4e-05,-0.00015,-0.00025,6.0
27932.0,-0.00013,4e-05,6e-05,3e-05,9e-05,4e-05,-0.00015,-0.00025,6.0
27933.0,-0.00013,4e-05,6e-05,3e-05,9e-05,4e-05,-0.00015,-0.00025,6.0
27934.0,-0.00013,4e-05,6e-05,3e-05,9e-05,4e-05,-0.00015,-0.00025,6.0
27935.0,-0.00013,4e-05,6e-05,3e-05,9e-05,4e-05,-0.00015,-0.00025,6.0
27936.0,-0.00013,4e-05,6e-05,3e-05,9e-05,4e-05,-0.00015,-0.00025,6.0
27938.0,-0.00013,4e-05,6e-05,3e-05,9e-05,4e-05,-0.00015,-0.00025,6.0
27939.0,-0.00013,4e-05,6e-05,3e-05,9e-05,4e-05,-0.00015,-0.00025,6.0
27940.0,-0.00013,4e-05,6e-05,3e-05,9e-05,4e-05,-0.00015,-0.00025,6.0
27941.0,-0.00013,4e-05,6e-05,3e-05,9e-05,4e-05,-0.00015,-0.00025,6.0
27942.0,-0.00013,4e-05,6e-05,3e-05,9e-05,4e-05,-0.00015,-0.00025,6.0
27943.0,-0.00013,4e-05,6e-05,3e-05,9e-05,4e-05,-0.00015,-0.00025,6.0
27944.0,-0.00013,4e-05,6e-05,3e-05,9e-05,4e-05,-0.00015,-0.00025,6.0
27945.0,-0.00013,4e-05,6e-05,3e-05,9e-05,4e-05,-0.00015,-0.00025,6.0
27946.0,-0.00013,4e-05,6e-05,3e-05,9e-05,4e-05,-0.00015,-0.00025,6.0
27947.0,-0.00013,4e-05,6e-05,3e-05,9e-05,4e-05,-0.00015,-0.00025,6.0
27948.0,-0.00013,4e-05,6e-05,3e-05,9e-05,4e-05,-0.00015,-0.00025,6.0
27949.0,-0.00013,4e-05,6e-05,3e-05,9e-05,4e-05,-0.00015,-0.00025,6.0
27950.0,-0.00013,4e-05,6e-05,3e-05,9e-05,4e-05,-0.00015,-0.00025,6.0
27951.0,-0.00013,4e-05,6e-05,3e-05,9e-05,4e-05,-0.00015,-0.00025,6.0
27952.0,-0.00013,4e-05,6e-05,3e-05,9e-05,4e-05,-0.00015,-0.00025,6.0
27953.0,-8e-05,0.0,4e-05,8e-05,9e-05,-2e-05,9e-05,-0.00015,6.0
27954.0,2e-05,-4e-05,-4e-05,2e-05,0.00013,5e-05,4e-05,-0.00014,6.0
27955.0,-1e-05,-1e-05,-6e-05,-4e-05,-3e-05,-5e-05,-0.0001,0.0,6.0
27956.0,-1e-05,-1e-05,-6e-05,-4e-05,-3e-05,-5e-05,-0.0001,0.0,6.0
27957.0,-1e-05,-1e-05,-6e-05,-4e-05,-3e-05,-5e-05,-0.0001,0.0,6.0
27958.0,-1e-05,-1e-05,-6e-05,-4e-05,-3e-05,-5e-05,-0.0001,0.0,6.0
27959.0,-1e-05,-1e-05,-6e-05,-4e-05,-3e-05,-5e-05,-0.0001,0.0,6.0
27960.0,-1e-05,-1e-05,-6e-05,-4e-05,-3e-05,-5e-05,-0.0001,0.0,6.0
27961.0,-4e-05,-7e-05,3e-05,-7e-05,-0.00019,5e-05,0.0,-6e-05,6.0
27962.0,-4e-05,-7e-05,3e-05,-7e-05,-0.00019,5e-05,0.0,-6e-05,6.0
27963.0,-4e-05,-7e-05,3e-05,-7e-05,-0.00019,5e-05,0.0,-6e-05,6.0
27964.0,-4e-05,-7e-05,3e-05,-7e-05,-0.00019,5e-05,0.0,-6e-05,6.0
27965.0,-4e-05,-7e-05,3e-05,-7e-05,-0.00019,5e-05,0.0,-6e-05,6.0
27966.0,-4e-05,-7e-05,3e-05,-7e-05,-0.00019,5e-05,0.0,-6e-05,6.0
27967.0,-4e-05,-7e-05,3e-05,-7e-05,-0.00019,5e-05,0.0,-6e-05,6.0
27968.0,-4e-05,-7e-05,3e-05,-7e-05,-0.00019,5e-05,0.0,-6e-05,6.0
27969.0,5e-05,2e-05,-1e-05,2e-05,0.0001,-3e-05,8e-05,0.00022,6.0
27970.0,5e-05,2e-05,-1e-05,2e-05,0.0001,-3e-05,8e-05,0.00022,6.0
27971.0,5e-05,2e-05,-1e-05,2e-05,0.0001,-3e-05,8e-05,0.00022,6.0
27972.0,5e-05,2e-05,-1e-05,2e-05,0.0001,-3e-05,8e-05,0.00022,6.0
27973.0,5e-05,2e-05,-1e-05,2e-05,0.0001,-3e-05,8e-05,0.00022,6.0
27974.0,0.0,-5e-05,-9e-05,-0.0001,-0.0002,-0.00018,-5e-05,0.00015,6.0
27975.0,0.0,-5e-05,-9e-05,-0.0001,-0.0002,-0.00018,-5e-05,0.00015,6.0
27976.0,0.0,-5e-05,-9e-05,-0.0001,-0.0002,-0.00018,-5e-05,0.00015,6.0
27977.0,0.0,-5e-05,-9e-05,-0.0001,-0.0002,-0.00018,-5e-05,0.00015,6.0
27978.0,0.0,-5e-05,-9e-05,-0.0001,-0.0002,-0.00018,-5e-05,0.00015,6.0
27979.0,0.0,-5e-05,-9e-05,-0.0001,-0.0002,-0.00018,-5e-05,0.00015,6.0
27980.0,0.0,-5e-05,-9e-05,-0.0001,-0.0002,-0.00018,-5e-05,0.00015,6.0
27981.0,0.0,-5e-05,-9e-05,-0.0001,-0.0002,-0.00018,-5e-05,0.00015,6.0
27982.0,0.0,-5e-05,-9e-05,-0.0001,-0.0002,-0.00018,-5e-05,0.00015,6.0
27983.0,0.0,-5e-05,-9e-05,-0.0001,-0.0002,-0.00018,-5e-05,0.00015,6.0
27984.0,0.0,-5e-05,-9e-05,-0.0001,-0.0002,-0.00018,-5e-05,0.00015,6.0
27985.0,0.0,-5e-05,-9e-05,-0.0001,-0.0002,-0.00018,-5e-05,0.00015,6.0
27986.0,0.0,-5e-05,-9e-05,-0.0001,-0.0002,-0.00018,-5e-05,0.00015,6.0
27988.0,0.0,-5e-05,-9e-05,-0.0001,-0.0002,-0.00018,-5e-05,0.00015,6.0
27989.0,0.0,-5e-05,-9e-05,-0.0001,-0.0002,-0.00018,-5e-05,0.00015,6.0
27990.0,0.0,-5e-05,-9e-05,-0.0001,-0.0002,-0.00018,-5e-05,0.00015,6.0
27991.0,5e-05,1e-05,0.00012,2e-05,-8e-05,2e-05,-6e-05,-7e-05,6.0
27992.0,5e-05,1e-05,0.00012,2e-05,-8e-05,2e-05,-6e-05,-7e-05,6.0
27993.0,5e-05,1e-05,0.00012,2e-05,-8e-05,2e-05,-6e-05,-7e-05,6.0
27994.0,5e-05,1e-05,0.00012,2e-05,-8e-05,2e-05,-6e-05,-7e-05,6.0
27995.0,5e-05,1e-05,0.00012,2e-05,-8e-05,2e-05,-6e-05,-7e-05,6.0
27996.0,5e-05,1e-05,0.00012,2e-05,-8e-05,2e-05,-6e-05,-7e-05,6.0
27997.0,5e-05,1e-05,0.00012,2e-05,-8e-05,2e-05,-6e-05,-7e-05,6.0
27998.0,-8e-05,-7e-05,-7e-05,-8e-05,-0.00012,-0.00016,-0.00031,-0.00027,6.0
27999.0,-8e-05,-7e-05,-7e-05,-8e-05,-0.00012,-0.00016,-0.00031,-0.00027,6.0
28000.0,0.0,-6e-05,-0.00011,-8e-05,-4e-05,6e-05,7e-05,0.0001,6.0
28001.0,0.0,-6e-05,-0.00011,-8e-05,-4e-05,6e-05,7e-05,0.0001,6.0
28002.0,0.0,-6e-05,-0.00011,-8e-05,-4e-05,6e-05,7e-05,0.0001,6.0
28003.0,0.0,-6e-05,-0.00011,-8e-05,-4e-05,6e-05,7e-05,0.0001,6.0
28004.0,0.0,-6e-05,-0.00011,-8e-05,-4e-05,6e-05,7e-05,0.0001,6.0
28005.0,0.0,-6e-05,-0.00011,-8e-05,-4e-05,6e-05,7e-05,0.0001,6.0
28006.0,0.0,-6e-05,-0.00011,-8e-05,-4e-05,6e-05,7e-05,0.0001,6.0
28007.0,0.0,-6e-05,-0.00011,-8e-05,-4e-05,6e-05,7e-05,0.0001,6.0
28008.0,0.0,-6e-05,-0.00011,-8e-05,-4e-05,6e-05,7e-05,0.0001,6.0
28009.0,0.0,-6e-05,-0.00011,-8e-05,-4e-05,6e-05,7e-05,0.0001,6.0
28010.0,0.0,-6e-05,-0.00011,-8e-05,-4e-05,6e-05,7e-05,0.0001,6.0
28011.0,0.0,-6e-05,-0.00011,-8e-05,-4e-05,6e-05,7e-05,0.0001,6.0
28012.0,0.0,-6e-05,-0.00011,-8e-05,-4e-05,6e-05,7e-05,0.0001,6.0
28013.0,0.0,-6e-05,-0.00011,-8e-05,-4e-05,6e-05,7e-05,0.0001,6.0
28014.0,0.0,-6e-05,-0.00011,-8e-05,-4e-05,6e-05,7e-05,0.0001,6.0
28015.0,0.0,-6e-05,-0.00011,-8e-05,-4e-05,6e-05,7e-05,0.0001,6.0
28017.0,0.0,-6e-05,-0.00011,-8e-05,-4e-05,6e-05,7e-05,0.0001,6.0
28018.0,0.0,-6e-05,-0.00011,-8e-05,-4e-05,6e-05,7e-05,0.0001,6.0
28019.0,0.0,-6e-05,-0.00011,-8e-05,-4e-05,6e-05,7e-05,0.0001,6.0
28020.0,0.0,-6e-05,-0.00011,-8e-05,-4e-05,6e-05,7e-05,0.0001,6.0
28021.0,0.0,-6e-05,-0.00011,-8e-05,-4e-05,6e-05,7e-05,0.0001,6.0
28022.0,0.0,-6e-05,-0.00011,-8e-05,-4e-05,6e-05,7e-05,0.0001,6.0
28023.0,0.0,-6e-05,-0.00011,-8e-05,-4e-05,6e-05,7e-05,0.0001,6.0
28024.0,0.0,-6e-05,-0.00011,-8e-05,-4e-05,6e-05,7e-05,0.0001,6.0
28025.0,0.0,-6e-05,-0.00011,-8e-05,-4e-05,6e-05,7e-05,0.0001,6.0
28026.0,0.0,-6e-05,-0.00011,-8e-05,-4e-05,6e-05,7e-05,0.0001,6.0
28027.0,0.0,-6e-05,-0.00011,-8e-05,-4e-05,6e-05,7e-05,0.0001,6.0
28028.0,-0.0001,0.00016,0.00021,9e-05,6e-05,4e-05,6e-05,-9e-05,6.0
28029.0,-0.0001,0.00016,0.00021,9e-05,6e-05,4e-05,6e-05,-9e-05,6.0
28030.0,-0.0001,0.00016,0.00021,9e-05,6e-05,4e-05,6e-05,-9e-05,6.0
28031.0,-0.0001,0.00016,0.00021,9e-05,6e-05,4e-05,6e-05,-9e-05,6.0
28032.0,-0.0001,0.00016,0.00021,9e-05,6e-05,4e-05,6e-05,-9e-05,6.0
28033.0,-0.0001,0.00016,0.00021,9e-05,6e-05,4e-05,6e-05,-9e-05,6.0
28034.0,-0.0001,0.00016,0.00021,9e-05,6e-05,4e-05,6e-05,-9e-05,6.0
28035.0,-0.0001,0.00016,0.00021,9e-05,6e-05,4e-05,6e-05,-9e-05,6.0
28036.0,-0.0001,0.00016,0.00021,9e-05,6e-05,4e-05,6e-05,-9e-05,6.0
28038.0,-0.0001,0.00016,0.00021,9e-05,6e-05,4e-05,6e-05,-9e-05,6.0
28039.0,-0.0001,0.00016,0.00021,9e-05,6e-05,4e-05,6e-05,-9e-05,6.0
28040.0,-0.0001,0.00016,0.00021,9e-05,6e-05,4e-05,6e-05,-9e-05,6.0
28041.0,-0.0001,0.00016,0.00021,9e-05,6e-05,4e-05,6e-05,-9e-05,6.0
28042.0,-0.0001,0.00016,0.00021,9e-05,6e-05,4e-05,6e-05,-9e-05,6.0
28043.0,-0.0001,0.00016,0.00021,9e-05,6e-05,4e-05,6e-05,-9e-05,6.0
28044.0,-0.0001,0.00016,0.00021,9e-05,6e-05,4e-05,6e-05,-9e-05,6.0
28045.0,-4e-05,-6e-05,-0.00012,-9e-05,-7e-05,-7e-05,2e-05,4e-05,6.0
28046.0,0.00026,6e-05,2e-05,5e-05,0.00011,9e-05,0.00021,0.00035,6.0
28047.0,0.00026,6e-05,2e-05,5e-05,0.00011,9e-05,0.00021,0.00035,6.0
28048.0,0.00026,6e-05,2e-05,5e-05,0.00011,9e-05,0.00021,0.00035,6.0
28049.0,3e-05,-2e-05,5e-05,4e-05,-1e-05,6e-05,0.0001,0.00022,6.0
28050.0,3e-05,-2e-05,5e-05,4e-05,-1e-05,6e-05,0.0001,0.00022,6.0
28051.0,3e-05,-2e-05,5e-05,4e-05,-1e-05,6e-05,0.0001,0.00022,6.0
28052.0,3e-05,-2e-05,5e-05,4e-05,-1e-05,6e-05,0.0001,0.00022,6.0
28053.0,3e-05,-2e-05,5e-05,4e-05,-1e-05,6e-05,0.0001,0.00022,6.0
28054.0,3e-05,-2e-05,5e-05,4e-05,-1e-05,6e-05,0.0001,0.00022,6.0
28055.0,3e-05,-2e-05,5e-05,4e-05,-1e-05,6e-05,0.0001,0.00022,6.0
28056.0,3e-05,-2e-05,5e-05,4e-05,-1e-05,6e-05,0.0001,0.00022,6.0
28057.0,3e-05,-2e-05,5e-05,4e-05,-1e-05,6e-05,0.0001,0.00022,6.0
28058.0,-2e-05,-1e-05,-9e-05,-5e-05,-2e-05,-7e-05,-0.00017,-0.00023,6.0
28059.0,-1e-05,-2e-05,-6e-05,-0.0001,-6e-05,3e-05,-2e-05,0.0,6.0
28060.0,-1e-05,-2e-05,-6e-05,-0.0001,-6e-05,3e-05,-2e-05,0.0,6.0
28061.0,-1e-05,-2e-05,-6e-05,-0.0001,-6e-05,3e-05,-2e-05,0.0,6.0
28062.0,-1e-05,-2e-05,-6e-05,-0.0001,-6e-05,3e-05,-2e-05,0.0,6.0
28063.0,-1e-05,-2e-05,-6e-05,-0.0001,-6e-05,3e-05,-2e-05,0.0,6.0
28064.0,0.00013,-2e-05,2e-05,8e-05,0.00013,5e-05,0.00012,0.00017,6.0
28065.0,0.00013,-2e-05,2e-05,8e-05,0.00013,5e-05,0.00012,0.00017,6.0
28066.0,0.00013,-2e-05,2e-05,8e-05,0.00013,5e-05,0.00012,0.00017,6.0
28067.0,0.00013,-2e-05,2e-05,8e-05,0.00013,5e-05,0.00012,0.00017,6.0
28068.0,0.00013,-2e-05,2e-05,8e-05,0.00013,5e-05,0.00012,0.00017,6.0
28069.0,0.00013,-2e-05,2e-05,8e-05,0.00013,5e-05,0.00012,0.00017,6.0
28070.0,0.00013,-2e-05,2e-05,8e-05,0.00013,5e-05,0.00012,0.00017,6.0
28071.0,0.00013,-2e-05,2e-05,8e-05,0.00013,5e-05,0.00012,0.00017,6.0
28072.0,0.00013,-2e-05,2e-05,8e-05,0.00013,5e-05,0.00012,0.00017,6.0
28073.0,0.00013,-2e-05,2e-05,8e-05,0.00013,5e-05,0.00012,0.00017,6.0
28074.0,0.00013,-2e-05,2e-05,8e-05,0.00013,5e-05,0.00012,0.00017,6.0
28075.0,0.00013,-2e-05,2e-05,8e-05,0.00013,5e-05,0.00012,0.00017,6.0
28076.0,0.00013,-2e-05,2e-05,8e-05,0.00013,5e-05,0.00012,0.00017,6.0
28077.0,0.00013,-2e-05,2e-05,8e-05,0.00013,5e-05,0.00012,0.00017,6.0
28078.0,0.00013,-2e-05,2e-05,8e-05,0.00013,5e-05,0.00012,0.00017,6.0
28079.0,0.00013,-2e-05,2e-05,8e-05,0.00013,5e-05,0.00012,0.00017,6.0
28080.0,0.00013,-2e-05,2e-05,8e-05,0.00013,5e-05,0.00012,0.00017,6.0
28081.0,7e-05,-3e-05,-0.0001,2e-05,0.00016,7e-05,2e-05,-0.00015,6.0
28082.0,-0.00013,3e-05,-0.00011,-1e-05,-6e-05,-0.00012,-6e-05,-1e-05,6.0
28083.0,-0.00013,3e-05,-0.00011,-1e-05,-6e-05,-0.00012,-6e-05,-1e-05,6.0
28084.0,-0.00013,3e-05,-0.00011,-1e-05,-6e-05,-0.00012,-6e-05,-1e-05,6.0
28085.0,-0.00013,3e-05,-0.00011,-1e-05,-6e-05,-0.00012,-6e-05,-1e-05,6.0
28086.0,-0.00013,3e-05,-0.00011,-1e-05,-6e-05,-0.00012,-6e-05,-1e-05,6.0
28089.0,-0.00013,3e-05,-0.00011,-1e-05,-6e-05,-0.00012,-6e-05,-1e-05,6.0
28090.0,-0.00013,3e-05,-0.00011,-1e-05,-6e-05,-0.00012,-6e-05,-1e-05,6.0
28091.0,-0.00013,3e-05,-0.00011,-1e-05,-6e-05,-0.00012,-6e-05,-1e-05,6.0
28092.0,-0.00013,3e-05,-0.00011,-1e-05,-6e-05,-0.00012,-6e-05,-1e-05,6.0
28093.0,-0.00013,3e-05,-0.00011,-1e-05,-6e-05,-0.00012,-6e-05,-1e-05,6.0
28094.0,-3e-05,-0.00015,0.0,-8e-05,-0.00012,3e-05,0.0,-0.00015,6.0
28095.0,-3e-05,4e-05,4e-05,8e-05,0.00012,8e-05,-2e-05,-0.00014,6.0
28096.0,-3e-05,4e-05,4e-05,8e-05,0.00012,8e-05,-2e-05,-0.00014,6.0
28097.0,-3e-05,4e-05,4e-05,8e-05,0.00012,8e-05,-2e-05,-0.00014,6.0
28098.0,-3e-05,4e-05,4e-05,8e-05,0.00012,8e-05,-2e-05,-0.00014,6.0
28099.0,-3e-05,4e-05,4e-05,8e-05,0.00012,8e-05,-2e-05,-0.00014,6.0
28100.0,-3e-05,4e-05,4e-05,8e-05,0.00012,8e-05,-2e-05,-0.00014,6.0
28101.0,-3e-05,4e-05,4e-05,8e-05,0.00012,8e-05,-2e-05,-0.00014,6.0
28102.0,-3e-05,4e-05,4e-05,8e-05,0.00012,8e-05,-2e-05,-0.00014,6.0
28103.0,0.00014,4e-05,-7e-05,-6e-05,2e-05,-8e-05,-5e-05,-0.0001,6.0
28104.0,0.00014,4e-05,-7e-05,-6e-05,2e-05,-8e-05,-5e-05,-0.0001,6.0
28105.0,0.00014,4e-05,-7e-05,-6e-05,2e-05,-8e-05,-5e-05,-0.0001,6.0
28106.0,0.00014,4e-05,-7e-05,-6e-05,2e-05,-8e-05,-5e-05,-0.0001,6.0
28107.0,0.00014,4e-05,-7e-05,-6e-05,2e-05,-8e-05,-5e-05,-0.0001,6.0
28108.0,0.00014,4e-05,-7e-05,-6e-05,2e-05,-8e-05,-5e-05,-0.0001,6.0
28109.0,0.00014,4e-05,-7e-05,-6e-05,2e-05,-8e-05,-5e-05,-0.0001,6.0
28110.0,0.00014,4e-05,-7e-05,-6e-05,2e-05,-8e-05,-5e-05,-0.0001,6.0
28111.0,0.00014,4e-05,-7e-05,-6e-05,2e-05,-8e-05,-5e-05,-0.0001,6.0
28112.0,0.00014,4e-05,-7e-05,-6e-05,2e-05,-8e-05,-5e-05,-0.0001,6.0
28113.0,0.00014,4e-05,-7e-05,-6e-05,2e-05,-8e-05,-5e-05,-0.0001,6.0
28114.0,0.00014,4e-05,-7e-05,-6e-05,2e-05,-8e-05,-5e-05,-0.0001,6.0
28115.0,0.00014,4e-05,-7e-05,-6e-05,2e-05,-8e-05,-5e-05,-0.0001,6.0
28116.0,0.00014,4e-05,-7e-05,-6e-05,2e-05,-8e-05,-5e-05,-0.0001,6.0
28117.0,0.00014,4e-05,-7e-05,-6e-05,2e-05,-8e-05,-5e-05,-0.0001,6.0
28118.0,-5e-05,-1e-05,3e-05,1e-05,-4e-05,-8e-05,-6e-05,0.00011,6.0
28119.0,-5e-05,-1e-05,3e-05,1e-05,-4e-05,-8e-05,-6e-05,0.00011,6.0
28120.0,0.00018,0.0001,-6e-05,-0.0001,-0.00016,-9e-05,3e-05,0.00018,6.0
28121.0,0.00018,0.0001,-6e-05,-0.0001,-0.00016,-9e-05,3e-05,0.00018,6.0
28122.0,0.00018,0.0001,-6e-05,-0.0001,-0.00016,-9e-05,3e-05,0.00018,6.0
28123.0,0.00018,0.0001,-6e-05,-0.0001,-0.00016,-9e-05,3e-05,0.00018,6.0
28124.0,0.00018,0.0001,-6e-05,-0.0001,-0.00016,-9e-05,3e-05,0.00018,6.0
28125.0,0.00018,0.0001,-6e-05,-0.0001,-0.00016,-9e-05,3e-05,0.00018,6.0
28126.0,0.00018,0.0001,-6e-05,-0.0001,-0.00016,-9e-05,3e-05,0.00018,6.0
28127.0,0.00018,0.0001,-6e-05,-0.0001,-0.00016,-9e-05,3e-05,0.00018,6.0
28128.0,0.00018,0.0001,-6e-05,-0.0001,-0.00016,-9e-05,3e-05,0.00018,6.0
28129.0,0.00018,0.0001,-6e-05,-0.0001,-0.00016,-9e-05,3e-05,0.00018,6.0
28130.0,0.00018,0.0001,-6e-05,-0.0001,-0.00016,-9e-05,3e-05,0.00018,6.0
28131.0,0.00018,0.0001,-6e-05,-0.0001,-0.00016,-9e-05,3e-05,0.00018,6.0
28132.0,0.00018,0.0001,-6e-05,-0.0001,-0.00016,-9e-05,3e-05,0.00018,6.0
28133.0,0.00018,0.0001,-6e-05,-0.0001,-0.00016,-9e-05,3e-05,0.00018,6.0
28134.0,0.00018,0.0001,-6e-05,-0.0001,-0.00016,-9e-05,3e-05,0.00018,6.0
28135.0,0.00018,0.0001,-6e-05,-0.0001,-0.00016,-9e-05,3e-05,0.00018,6.0
28136.0,0.00018,0.0001,-6e-05,-0.0001,-0.00016,-9e-05,3e-05,0.00018,6.0
28138.0,0.00018,0.0001,-6e-05,-0.0001,-0.00016,-9e-05,3e-05,0.00018,6.0
28139.0,0.00018,0.0001,-6e-05,-0.0001,-0.00016,-9e-05,3e-05,0.00018,6.0
28140.0,-4e-05,1e-05,-1e-05,-2e-05,-2e-05,0.0,7e-05,3e-05,6.0
28141.0,-4e-05,1e-05,-1e-05,-2e-05,-2e-05,0.0,7e-05,3e-05,6.0
28142.0,-4e-05,1e-05,-1e-05,-2e-05,-2e-05,0.0,7e-05,3e-05,6.0
28143.0,-4e-05,1e-05,-1e-05,-2e-05,-2e-05,0.0,7e-05,3e-05,6.0
28144.0,-4e-05,1e-05,-1e-05,-2e-05,-2e-05,0.0,7e-05,3e-05,6.0
28145.0,-4e-05,1e-05,-1e-05,-2e-05,-2e-05,0.0,7e-05,3e-05,6.0
28146.0,-4e-05,1e-05,-1e-05,-2e-05,-2e-05,0.0,7e-05,3e-05,6.0
28147.0,-4e-05,1e-05,-1e-05,-2e-05,-2e-05,0.0,7e-05,3e-05,6.0
28148.0,2e-05,-1e-05,0.0,4e-05,3e-05,6e-05,-9e-05,-0.00011,6.0
28149.0,2e-05,-1e-05,0.0,4e-05,3e-05,6e-05,-9e-05,-0.00011,6.0
28150.0,2e-05,-1e-05,0.0,4e-05,3e-05,6e-05,-9e-05,-0.00011,6.0
28151.0,2e-05,-1e-05,0.0,4e-05,3e-05,6e-05,-9e-05,-0.00011,6.0
28152.0,2e-05,-1e-05,0.0,4e-05,3e-05,6e-05,-9e-05,-0.00011,6.0
28153.0,2e-05,-1e-05,0.0,4e-05,3e-05,6e-05,-9e-05,-0.00011,6.0
28154.0,2e-05,-1e-05,0.0,4e-05,3e-05,6e-05,-9e-05,-0.00011,6.0
28155.0,-3e-05,-2e-05,8e-05,3e-05,-1e-05,2e-05,2e-05,6e-05,6.0
28156.0,-3e-05,-2e-05,8e-05,3e-05,-1e-05,2e-05,2e-05,6e-05,6.0
28157.0,-3e-05,-2e-05,8e-05,3e-05,-1e-05,2e-05,2e-05,6e-05,6.0
28158.0,-3e-05,-2e-05,8e-05,3e-05,-1e-05,2e-05,2e-05,6e-05,6.0
28159.0,-3e-05,-2e-05,8e-05,3e-05,-1e-05,2e-05,2e-05,6e-05,6.0
28160.0,-3e-05,-2e-05,8e-05,3e-05,-1e-05,2e-05,2e-05,6e-05,6.0
28161.0,-3e-05,-2e-05,8e-05,3e-05,-1e-05,2e-05,2e-05,6e-05,6.0
28162.0,-3e-05,-2e-05,8e-05,3e-05,-1e-05,2e-05,2e-05,6e-05,6.0
28163.0,-3e-05,-2e-05,8e-05,3e-05,-1e-05,2e-05,2e-05,6e-05,6.0
28164.0,-3e-05,-2e-05,8e-05,3e-05,-1e-05,2e-05,2e-05,6e-05,6.0
28165.0,-3e-05,-2e-05,8e-05,3e-05,-1e-05,2e-05,2e-05,6e-05,6.0
28166.0,-3e-05,-2e-05,8e-05,3e-05,-1e-05,2e-05,2e-05,6e-05,6.0
28167.0,-3e-05,-2e-05,8e-05,3e-05,-1e-05,2e-05,2e-05,6e-05,6.0
28168.0,-3e-05,-2e-05,8e-05,3e-05,-1e-05,2e-05,2e-05,6e-05,6.0
28169.0,-3e-05,-2e-05,8e-05,3e-05,-1e-05,2e-05,2e-05,6e-05,6.0
28170.0,-3e-05,-2e-05,8e-05,3e-05,-1e-05,2e-05,2e-05,6e-05,6.0
28171.0,-8e-05,-0.00013,2e-05,0.0,3e-05,3e-05,0.00014,0.00035,6.0
28172.0,-8e-05,-0.00013,2e-05,0.0,3e-05,3e-05,0.00014,0.00035,6.0
28173.0,-8e-05,-0.00013,2e-05,0.0,3e-05,3e-05,0.00014,0.00035,6.0
28174.0,-8e-05,-0.00013,2e-05,0.0,3e-05,3e-05,0.00014,0.00035,6.0
28175.0,-8e-05,-0.00013,2e-05,0.0,3e-05,3e-05,0.00014,0.00035,6.0
28176.0,-8e-05,-0.00013,2e-05,0.0,3e-05,3e-05,0.00014,0.00035,6.0
28177.0,-8e-05,-0.00013,2e-05,0.0,3e-05,3e-05,0.00014,0.00035,6.0
28178.0,-4e-05,1e-05,1e-05,0.0,-4e-05,-9e-05,1e-05,-0.00011,6.0
28179.0,-4e-05,1e-05,1e-05,0.0,-4e-05,-9e-05,1e-05,-0.00011,6.0
28180.0,0.00018,0.0001,0.00016,6e-05,8e-05,-1e-05,0.0002,0.00053,6.0
28181.0,0.00018,0.0001,0.00016,6e-05,8e-05,-1e-05,0.0002,0.00053,6.0
28182.0,0.00018,0.0001,0.00016,6e-05,8e-05,-1e-05,0.0002,0.00053,6.0
28183.0,0.00018,0.0001,0.00016,6e-05,8e-05,-1e-05,0.0002,0.00053,6.0
28184.0,0.00018,0.0001,0.00016,6e-05,8e-05,-1e-05,0.0002,0.00053,6.0
28185.0,0.00018,0.0001,0.00016,6e-05,8e-05,-1e-05,0.0002,0.00053,6.0
28186.0,0.00018,0.0001,0.00016,6e-05,8e-05,-1e-05,0.0002,0.00053,6.0
28188.0,0.00018,0.0001,0.00016,6e-05,8e-05,-1e-05,0.0002,0.00053,6.0
28189.0,0.00018,0.0001,0.00016,6e-05,8e-05,-1e-05,0.0002,0.00053,6.0
28190.0,0.00018,0.0001,0.00016,6e-05,8e-05,-1e-05,0.0002,0.00053,6.0
28191.0,0.00018,0.0001,0.00016,6e-05,8e-05,-1e-05,0.0002,0.00053,6.0
28192.0,0.00018,0.0001,0.00016,6e-05,8e-05,-1e-05,0.0002,0.00053,6.0
28193.0,0.00018,0.0001,0.00016,6e-05,8e-05,-1e-05,0.0002,0.00053,6.0
28194.0,0.00018,0.0001,0.00016,6e-05,8e-05,-1e-05,0.0002,0.00053,6.0
28195.0,0.00018,0.0001,0.00016,6e-05,8e-05,-1e-05,0.0002,0.00053,6.0
28196.0,0.00018,0.0001,0.00016,6e-05,8e-05,-1e-05,0.0002,0.00053,6.0
28197.0,0.00018,0.0001,0.00016,6e-05,8e-05,-1e-05,0.0002,0.00053,6.0
28198.0,0.00018,0.0001,0.00016,6e-05,8e-05,-1e-05,0.0002,0.00053,6.0
28199.0,0.00018,0.0001,0.00016,6e-05,8e-05,-1e-05,0.0002,0.00053,6.0
28200.0,-3e-05,-1e-05,1e-05,6e-05,0.00016,0.00013,0.00012,0.00011,6.0
28201.0,-3e-05,-1e-05,1e-05,6e-05,0.00016,0.00013,0.00012,0.00011,6.0
28202.0,-3e-05,-1e-05,1e-05,6e-05,0.00016,0.00013,0.00012,0.00011,6.0
28203.0,-8e-05,1e-05,2e-05,-4e-05,-0.0001,-0.0001,-0.00017,-0.00026,6.0
28204.0,-8e-05,1e-05,2e-05,-4e-05,-0.0001,-0.0001,-0.00017,-0.00026,6.0
28205.0,-8e-05,1e-05,2e-05,-4e-05,-0.0001,-0.0001,-0.00017,-0.00026,6.0
28206.0,-8e-05,1e-05,2e-05,-4e-05,-0.0001,-0.0001,-0.00017,-0.00026,6.0
28207.0,-8e-05,1e-05,2e-05,-4e-05,-0.0001,-0.0001,-0.00017,-0.00026,6.0
28208.0,-8e-05,1e-05,2e-05,-4e-05,-0.0001,-0.0001,-0.00017,-0.00026,6.0
28209.0,-8e-05,1e-05,2e-05,-4e-05,-0.0001,-0.0001,-0.00017,-0.00026,6.0
28210.0,-8e-05,1e-05,2e-05,-4e-05,-0.0001,-0.0001,-0.00017,-0.00026,6.0
28211.0,-8e-05,1e-05,2e-05,-4e-05,-0.0001,-0.0001,-0.00017,-0.00026,6.0
28212.0,-8e-05,1e-05,2e-05,-4e-05,-0.0001,-0.0001,-0.00017,-0.00026,6.0
28213.0,-8e-05,1e-05,2e-05,-4e-05,-0.0001,-0.0001,-0.00017,-0.00026,6.0
28214.0,-8e-05,1e-05,2e-05,-4e-05,-0.0001,-0.0001,-0.00017,-0.00026,6.0
28215.0,-8e-05,1e-05,2e-05,-4e-05,-0.0001,-0.0001,-0.00017,-0.00026,6.0
28216.0,-8e-05,1e-05,2e-05,-4e-05,-0.0001,-0.0001,-0.00017,-0.00026,6.0
28217.0,-8e-05,1e-05,2e-05,-4e-05,-0.0001,-0.0001,-0.00017,-0.00026,6.0
28218.0,-8e-05,1e-05,2e-05,-4e-05,-0.0001,-0.0001,-0.00017,-0.00026,6.0
28219.0,-8e-05,1e-05,2e-05,-4e-05,-0.0001,-0.0001,-0.00017,-0.00026,6.0
28220.0,-8e-05,1e-05,2e-05,-4e-05,-0.0001,-0.0001,-0.00017,-0.00026,6.0
28221.0,-8e-05,1e-05,2e-05,-4e-05,-0.0001,-0.0001,-0.00017,-0.00026,6.0
28222.0,-8e-05,1e-05,2e-05,-4e-05,-0.0001,-0.0001,-0.00017,-0.00026,6.0
28223.0,0.0,-1e-05,-6e-05,-5e-05,-6e-05,-9e-05,2e-05,9e-05,6.0
28224.0,0.0,-1e-05,-6e-05,-5e-05,-6e-05,-9e-05,2e-05,9e-05,6.0
28225.0,-4e-05,-9e-05,-0.00013,-4e-05,3e-05,7e-05,7e-05,-3e-05,6.0
28226.0,-4e-05,-9e-05,-0.00013,-4e-05,3e-05,7e-05,7e-05,-3e-05,6.0
28227.0,-4e-05,-9e-05,-0.00013,-4e-05,3e-05,7e-05,7e-05,-3e-05,6.0
28228.0,-4e-05,-9e-05,-0.00013,-4e-05,3e-05,7e-05,7e-05,-3e-05,6.0
28229.0,-4e-05,-9e-05,-0.00013,-4e-05,3e-05,7e-05,7e-05,-3e-05,6.0
28230.0,-4e-05,-9e-05,-0.00013,-4e-05,3e-05,7e-05,7e-05,-3e-05,6.0
28231.0,-4e-05,-9e-05,-0.00013,-4e-05,3e-05,7e-05,7e-05,-3e-05,6.0
28232.0,-4e-05,-9e-05,-0.00013,-4e-05,3e-05,7e-05,7e-05,-3e-05,6.0
28233.0,-4e-05,-9e-05,-0.00013,-4e-05,3e-05,7e-05,7e-05,-3e-05,6.0
28234.0,-4e-05,-9e-05,-0.00013,-4e-05,3e-05,7e-05,7e-05,-3e-05,6.0
28235.0,-4e-05,-9e-05,-0.00013,-4e-05,3e-05,7e-05,7e-05,-3e-05,6.0
28236.0,-4e-05,-9e-05,-0.00013,-4e-05,3e-05,7e-05,7e-05,-3e-05,6.0
28238.0,-4e-05,-9e-05,-0.00013,-4e-05,3e-05,7e-05,7e-05,-3e-05,6.0
28239.0,-4e-05,-9e-05,-0.00013,-4e-05,3e-05,7e-05,7e-05,-3e-05,6.0
28240.0,-4e-05,-9e-05,-0.00013,-4e-05,3e-05,7e-05,7e-05,-3e-05,6.0
28241.0,-4e-05,-9e-05,-0.00013,-4e-05,3e-05,7e-05,7e-05,-3e-05,6.0
28242.0,-4e-05,-9e-05,-0.00013,-4e-05,3e-05,7e-05,7e-05,-3e-05,6.0
28243.0,-4e-05,-9e-05,-0.00013,-4e-05,3e-05,7e-05,7e-05,-3e-05,6.0
28244.0,-4e-05,-9e-05,-0.00013,-4e-05,3e-05,7e-05,7e-05,-3e-05,6.0
28245.0,-4e-05,-9e-05,-0.00013,-4e-05,3e-05,7e-05,7e-05,-3e-05,6.0
28246.0,-0.00034,-0.00013,2e-05,0.0001,0.00012,0.0001,-0.00023,-0.00057,6.0
28247.0,5e-05,1e-05,5e-05,-2e-05,-7e-05,5e-05,-5e-05,-8e-05,6.0
28248.0,5e-05,1e-05,5e-05,-2e-05,-7e-05,5e-05,-5e-05,-8e-05,6.0
28249.0,5e-05,1e-05,5e-05,-2e-05,-7e-05,5e-05,-5e-05,-8e-05,6.0
28250.0,5e-05,1e-05,5e-05,-2e-05,-7e-05,5e-05,-5e-05,-8e-05,6.0
28251.0,5e-05,1e-05,5e-05,-2e-05,-7e-05,5e-05,-5e-05,-8e-05,6.0
28252.0,5e-05,1e-05,5e-05,-2e-05,-7e-05,5e-05,-5e-05,-8e-05,6.0
28253.0,5e-05,1e-05,5e-05,-2e-05,-7e-05,5e-05,-5e-05,-8e-05,6.0
28254.0,5e-05,1e-05,5e-05,-2e-05,-7e-05,5e-05,-5e-05,-8e-05,6.0
28255.0,5e-05,1e-05,5e-05,-2e-05,-7e-05,5e-05,-5e-05,-8e-05,6.0
28256.0,5e-05,1e-05,5e-05,-2e-05,-7e-05,5e-05,-5e-05,-8e-05,6.0
28257.0,5e-05,1e-05,5e-05,-2e-05,-7e-05,5e-05,-5e-05,-8e-05,6.0
28258.0,5e-05,1e-05,5e-05,-2e-05,-7e-05,5e-05,-5e-05,-8e-05,6.0
28259.0,5e-05,1e-05,5e-05,-2e-05,-7e-05,5e-05,-5e-05,-8e-05,6.0
28260.0,5e-05,1e-05,5e-05,-2e-05,-7e-05,5e-05,-5e-05,-8e-05,6.0
28261.0,5e-05,1e-05,5e-05,-2e-05,-7e-05,5e-05,-5e-05,-8e-05,6.0
28262.0,5e-05,1e-05,5e-05,-2e-05,-7e-05,5e-05,-5e-05,-8e-05,6.0
28263.0,5e-05,1e-05,5e-05,-2e-05,-7e-05,5e-05,-5e-05,-8e-05,6.0
28264.0,5e-05,1e-05,5e-05,-2e-05,-7e-05,5e-05,-5e-05,-8e-05,6.0
28265.0,5e-05,1e-05,5e-05,-2e-05,-7e-05,5e-05,-5e-05,-8e-05,6.0
28266.0,5e-05,1e-05,5e-05,-2e-05,-7e-05,5e-05,-5e-05,-8e-05,6.0
28267.0,5e-05,1e-05,5e-05,-2e-05,-7e-05,5e-05,-5e-05,-8e-05,6.0
28268.0,0.0001,4e-05,0.0,4e-05,0.00012,2e-05,-1e-05,0.00017,6.0
28269.0,0.0001,4e-05,0.0,4e-05,0.00012,2e-05,-1e-05,0.00017,6.0
28270.0,8e-05,8e-05,-1e-05,3e-05,5e-05,0.0001,-1e-05,2e-05,6.0
28271.0,8e-05,8e-05,-1e-05,3e-05,5e-05,0.0001,-1e-05,2e-05,6.0
28272.0,8e-05,8e-05,-1e-05,3e-05,5e-05,0.0001,-1e-05,2e-05,6.0
28273.0,8e-05,8e-05,-1e-05,3e-05,5e-05,0.0001,-1e-05,2e-05,6.0
28274.0,0.00025,5e-05,-7e-05,-9e-05,-8e-05,-2e-05,9e-05,0.00036,6.0
28275.0,0.00025,5e-05,-7e-05,-9e-05,-8e-05,-2e-05,9e-05,0.00036,6.0
28276.0,0.00025,5e-05,-7e-05,-9e-05,-8e-05,-2e-05,9e-05,0.00036,6.0
28277.0,0.00025,5e-05,-7e-05,-9e-05,-8e-05,-2e-05,9e-05,0.00036,6.0
28278.0,0.00025,5e-05,-7e-05,-9e-05,-8e-05,-2e-05,9e-05,0.00036,6.0
28279.0,0.00025,5e-05,-7e-05,-9e-05,-8e-05,-2e-05,9e-05,0.00036,6.0
28280.0,0.00025,5e-05,-7e-05,-9e-05,-8e-05,-2e-05,9e-05,0.00036,6.0
28281.0,0.00025,5e-05,-7e-05,-9e-05,-8e-05,-2e-05,9e-05,0.00036,6.0
28282.0,0.00025,5e-05,-7e-05,-9e-05,-8e-05,-2e-05,9e-05,0.00036,6.0
28283.0,-8e-05,2e-05,0.00016,1e-05,-0.00011,-9e-05,1e-05,-1e-05,6.0
28284.0,-8e-05,2e-05,0.00016,1e-05,-0.00011,-9e-05,1e-05,-1e-05,6.0
28285.0,-8e-05,2e-05,0.00016,1e-05,-0.00011,-9e-05,1e-05,-1e-05,6.0
28286.0,-8e-05,2e-05,0.00016,1e-05,-0.00011,-9e-05,1e-05,-1e-05,6.0
28289.0,-8e-05,2e-05,0.00016,1e-05,-0.00011,-9e-05,1e-05,-1e-05,6.0
28290.0,-8e-05,2e-05,0.00016,1e-05,-0.00011,-9e-05,1e-05,-1e-05,6.0
28291.0,-8e-05,2e-05,0.00016,1e-05,-0.00011,-9e-05,1e-05,-1e-05,6.0
28292.0,-8e-05,2e-05,0.00016,1e-05,-0.00011,-9e-05,1e-05,-1e-05,6.0
28293.0,-8e-05,2e-05,0.00016,1e-05,-0.00011,-9e-05,1e-05,-1e-05,6.0
28294.0,-8e-05,2e-05,0.00016,1e-05,-0.00011,-9e-05,1e-05,-1e-05,6.0
28295.0,-8e-05,2e-05,0.00016,1e-05,-0.00011,-9e-05,1e-05,-1e-05,6.0
28296.0,-8e-05,2e-05,0.00016,1e-05,-0.00011,-9e-05,1e-05,-1e-05,6.0
28297.0,-8e-05,2e-05,0.00016,1e-05,-0.00011,-9e-05,1e-05,-1e-05,6.0
28298.0,-8e-05,2e-05,0.00016,1e-05,-0.00011,-9e-05,1e-05,-1e-05,6.0
28299.0,1e-05,-8e-05,-0.00013,-3e-05,0.0,1e-05,0.00012,0.00015,6.0
28300.0,-0.00039,-0.00013,-5e-05,3e-05,5e-05,3e-05,2e-05,-2e-05,6.0
28301.0,-0.00039,-0.00013,-5e-05,3e-05,5e-05,3e-05,2e-05,-2e-05,6.0
28302.0,-0.00039,-0.00013,-5e-05,3e-05,5e-05,3e-05,2e-05,-2e-05,6.0
28303.0,-0.00039,-0.00013,-5e-05,3e-05,5e-05,3e-05,2e-05,-2e-05,6.0
28304.0,-0.00039,-0.00013,-5e-05,3e-05,5e-05,3e-05,2e-05,-2e-05,6.0
28305.0,-0.00039,-0.00013,-5e-05,3e-05,5e-05,3e-05,2e-05,-2e-05,6.0
28306.0,-0.00039,-0.00013,-5e-05,3e-05,5e-05,3e-05,2e-05,-2e-05,6.0
28307.0,-0.00039,-0.00013,-5e-05,3e-05,5e-05,3e-05,2e-05,-2e-05,6.0
28308.0,-0.00039,-0.00013,-5e-05,3e-05,5e-05,3e-05,2e-05,-2e-05,6.0
28309.0,-0.00039,-0.00013,-5e-05,3e-05,5e-05,3e-05,2e-05,-2e-05,6.0
28310.0,-0.00039,-0.00013,-5e-05,3e-05,5e-05,3e-05,2e-05,-2e-05,6.0
28311.0,-0.00039,-0.00013,-5e-05,3e-05,5e-05,3e-05,2e-05,-2e-05,6.0
28312.0,-0.00039,-0.00013,-5e-05,3e-05,5e-05,3e-05,2e-05,-2e-05,6.0
28313.0,-0.00039,-0.00013,-5e-05,3e-05,5e-05,3e-05,2e-05,-2e-05,6.0
28314.0,-0.00039,-0.00013,-5e-05,3e-05,5e-05,3e-05,2e-05,-2e-05,6.0
28315.0,-0.00039,-0.00013,-5e-05,3e-05,5e-05,3e-05,2e-05,-2e-05,6.0
28316.0,-0.00039,-0.00013,-5e-05,3e-05,5e-05,3e-05,2e-05,-2e-05,6.0
28317.0,-0.00039,-0.00013,-5e-05,3e-05,5e-05,3e-05,2e-05,-2e-05,6.0
28318.0,-0.00039,-0.00013,-5e-05,3e-05,5e-05,3e-05,2e-05,-2e-05,6.0
28319.0,-0.00039,-0.00013,-5e-05,3e-05,5e-05,3e-05,2e-05,-2e-05,6.0
28320.0,-0.00039,-0.00013,-5e-05,3e-05,5e-05,3e-05,2e-05,-2e-05,6.0
28321.0,0.00016,0.00017,5e-05,1e-05,-3e-05,-7e-05,-0.0001,-0.00012,6.0
28322.0,-0.0001,-0.00018,-8e-05,-6e-05,-7e-05,-5e-05,5e-05,3e-05,6.0
28323.0,-0.0001,-0.00018,-8e-05,-6e-05,-7e-05,-5e-05,5e-05,3e-05,6.0
28324.0,-0.0001,-0.00018,-8e-05,-6e-05,-7e-05,-5e-05,5e-05,3e-05,6.0
28325.0,-0.0001,-0.00018,-8e-05,-6e-05,-7e-05,-5e-05,5e-05,3e-05,6.0
28326.0,-0.0001,-0.00018,-8e-05,-6e-05,-7e-05,-5e-05,5e-05,3e-05,6.0
28327.0,-0.0001,-0.00018,-8e-05,-6e-05,-7e-05,-5e-05,5e-05,3e-05,6.0
28328.0,-0.0001,-0.00018,-8e-05,-6e-05,-7e-05,-5e-05,5e-05,3e-05,6.0
28329.0,-0.0001,-0.00018,-8e-05,-6e-05,-7e-05,-5e-05,5e-05,3e-05,6.0
28330.0,-0.0001,-0.00018,-8e-05,-6e-05,-7e-05,-5e-05,5e-05,3e-05,6.0
28331.0,-0.0001,-0.00018,-8e-05,-6e-05,-7e-05,-5e-05,5e-05,3e-05,6.0
28332.0,-0.0001,-0.00018,-8e-05,-6e-05,-7e-05,-5e-05,5e-05,3e-05,6.0
28333.0,-0.0001,-0.00018,-8e-05,-6e-05,-7e-05,-5e-05,5e-05,3e-05,6.0
28334.0,7e-05,1e-05,0.0,-1e-05,-3e-05,1e-05,-9e-05,0.00018,6.0
28335.0,7e-05,1e-05,0.0,-1e-05,-3e-05,1e-05,-9e-05,0.00018,6.0
28336.0,7e-05,1e-05,0.0,-1e-05,-3e-05,1e-05,-9e-05,0.00018,6.0
28338.0,7e-05,1e-05,0.0,-1e-05,-3e-05,1e-05,-9e-05,0.00018,6.0
28339.0,7e-05,1e-05,0.0,-1e-05,-3e-05,1e-05,-9e-05,0.00018,6.0
28340.0,7e-05,1e-05,0.0,-1e-05,-3e-05,1e-05,-9e-05,0.00018,6.0
28341.0,7e-05,1e-05,0.0,-1e-05,-3e-05,1e-05,-9e-05,0.00018,6.0
28342.0,7e-05,1e-05,0.0,-1e-05,-3e-05,1e-05,-9e-05,0.00018,6.0
28343.0,7e-05,0.0,3e-05,1e-05,6e-05,-2e-05,-6e-05,-0.00022,6.0
28344.0,-8e-05,-8e-05,-8e-05,-9e-05,-6e-05,0.00011,-0.0001,-8e-05,6.0
28345.0,-8e-05,-8e-05,-8e-05,-9e-05,-6e-05,0.00011,-0.0001,-8e-05,6.0
28346.0,-8e-05,-8e-05,-8e-05,-9e-05,-6e-05,0.00011,-0.0001,-8e-05,6.0
28347.0,-8e-05,-8e-05,-8e-05,-9e-05,-6e-05,0.00011,-0.0001,-8e-05,6.0
28348.0,-8e-05,-8e-05,-8e-05,-9e-05,-6e-05,0.00011,-0.0001,-8e-05,6.0
28349.0,-8e-05,-8e-05,-8e-05,-9e-05,-6e-05,0.00011,-0.0001,-8e-05,6.0
28350.0,-8e-05,-8e-05,-8e-05,-9e-05,-6e-05,0.00011,-0.0001,-8e-05,6.0
28351.0,-8e-05,-8e-05,-8e-05,-9e-05,-6e-05,0.00011,-0.0001,-8e-05,6.0
28352.0,-8e-05,-8e-05,-8e-05,-9e-05,-6e-05,0.00011,-0.0001,-8e-05,6.0
28353.0,-8e-05,-8e-05,-8e-05,-9e-05,-6e-05,0.00011,-0.0001,-8e-05,6.0
28354.0,-8e-05,-8e-05,-8e-05,-9e-05,-6e-05,0.00011,-0.0001,-8e-05,6.0
28355.0,-8e-05,-8e-05,-8e-05,-9e-05,-6e-05,0.00011,-0.0001,-8e-05,6.0
28356.0,-8e-05,-8e-05,-8e-05,-9e-05,-6e-05,0.00011,-0.0001,-8e-05,6.0
28357.0,-8e-05,-8e-05,-8e-05,-9e-05,-6e-05,0.00011,-0.0001,-8e-05,6.0
28358.0,-7e-05,3e-05,-1e-05,-3e-05,-0.00011,-7e-05,4e-05,-0.0001,6.0
28359.0,-7e-05,3e-05,-1e-05,-3e-05,-0.00011,-7e-05,4e-05,-0.0001,6.0
28360.0,2e-05,-4e-05,1e-05,-4e-05,-6e-05,-3e-05,3e-05,-0.00014,6.0
28361.0,2e-05,-4e-05,1e-05,-4e-05,-6e-05,-3e-05,3e-05,-0.00014,6.0
28362.0,2e-05,-4e-05,1e-05,-4e-05,-6e-05,-3e-05,3e-05,-0.00014,6.0
28363.0,2e-05,-4e-05,1e-05,-4e-05,-6e-05,-3e-05,3e-05,-0.00014,6.0
28364.0,2e-05,-4e-05,1e-05,-4e-05,-6e-05,-3e-05,3e-05,-0.00014,6.0
28365.0,2e-05,-4e-05,1e-05,-4e-05,-6e-05,-3e-05,3e-05,-0.00014,6.0
28366.0,2e-05,-4e-05,1e-05,-4e-05,-6e-05,-3e-05,3e-05,-0.00014,6.0
28367.0,2e-05,-4e-05,1e-05,-4e-05,-6e-05,-3e-05,3e-05,-0.00014,6.0
28368.0,2e-05,-4e-05,1e-05,-4e-05,-6e-05,-3e-05,3e-05,-0.00014,6.0
28369.0,2e-05,-4e-05,1e-05,-4e-05,-6e-05,-3e-05,3e-05,-0.00014,6.0
28370.0,2e-05,-4e-05,1e-05,-4e-05,-6e-05,-3e-05,3e-05,-0.00014,6.0
28371.0,2e-05,-4e-05,1e-05,-4e-05,-6e-05,-3e-05,3e-05,-0.00014,6.0
28372.0,2e-05,-4e-05,1e-05,-4e-05,-6e-05,-3e-05,3e-05,-0.00014,6.0
28373.0,2e-05,-4e-05,1e-05,-4e-05,-6e-05,-3e-05,3e-05,-0.00014,6.0
28374.0,2e-05,-4e-05,1e-05,-4e-05,-6e-05,-3e-05,3e-05,-0.00014,6.0
28375.0,2e-05,-4e-05,1e-05,-4e-05,-6e-05,-3e-05,3e-05,-0.00014,6.0
28376.0,2e-05,-4e-05,1e-05,-4e-05,-6e-05,-3e-05,3e-05,-0.00014,6.0
28377.0,2e-05,-4e-05,1e-05,-4e-05,-6e-05,-3e-05,3e-05,-0.00014,6.0
28378.0,2e-05,-4e-05,1e-05,-4e-05,-6e-05,-3e-05,3e-05,-0.00014,6.0
28379.0,2e-05,-4e-05,1e-05,-4e-05,-6e-05,-3e-05,3e-05,-0.00014,6.0
28380.0,2e-05,-4e-05,1e-05,-4e-05,-6e-05,-3e-05,3e-05,-0.00014,6.0
28381.0,-0.00011,-8e-05,2e-05,6e-05,5e-05,0.00015,0.00014,0.00022,6.0
28382.0,4e-05,-4e-05,-0.00013,-9e-05,-2e-05,-5e-05,-1e-05,-8e-05,6.0
28383.0,4e-05,-4e-05,-0.00013,-9e-05,-2e-05,-5e-05,-1e-05,-8e-05,6.0
28384.0,4e-05,-4e-05,-0.00013,-9e-05,-2e-05,-5e-05,-1e-05,-8e-05,6.0
28385.0,4e-05,-4e-05,-0.00013,-9e-05,-2e-05,-5e-05,-1e-05,-8e-05,6.0
28386.0,4e-05,-4e-05,-0.00013,-9e-05,-2e-05,-5e-05,-1e-05,-8e-05,6.0
28389.0,4e-05,-4e-05,-0.00013,-9e-05,-2e-05,-5e-05,-1e-05,-8e-05,6.0
28390.0,4e-05,-4e-05,-0.00013,-9e-05,-2e-05,-5e-05,-1e-05,-8e-05,6.0
28391.0,4e-05,-4e-05,-0.00013,-9e-05,-2e-05,-5e-05,-1e-05,-8e-05,6.0
28392.0,4e-05,-4e-05,-0.00013,-9e-05,-2e-05,-5e-05,-1e-05,-8e-05,6.0
28393.0,4e-05,-4e-05,-0.00013,-9e-05,-2e-05,-5e-05,-1e-05,-8e-05,6.0
28394.0,7e-05,0.00016,-1e-05,-1e-05,-1e-05,4e-05,-2e-05,-0.0001,6.0
28395.0,-0.00011,-0.00014,1e-05,-2e-05,-1e-05,-2e-05,-6e-05,-0.00017,6.0
28396.0,-0.00011,-0.00014,1e-05,-2e-05,-1e-05,-2e-05,-6e-05,-0.00017,6.0
28397.0,-0.00011,-0.00014,1e-05,-2e-05,-1e-05,-2e-05,-6e-05,-0.00017,6.0
28398.0,-0.00011,-0.00014,1e-05,-2e-05,-1e-05,-2e-05,-6e-05,-0.00017,6.0
28399.0,-0.00011,-0.00014,1e-05,-2e-05,-1e-05,-2e-05,-6e-05,-0.00017,6.0
28400.0,-0.00011,-0.00014,1e-05,-2e-05,-1e-05,-2e-05,-6e-05,-0.00017,6.0
28401.0,-0.00011,-0.00014,1e-05,-2e-05,-1e-05,-2e-05,-6e-05,-0.00017,6.0
28402.0,-0.00011,-0.00014,1e-05,-2e-05,-1e-05,-2e-05,-6e-05,-0.00017,6.0
28403.0,0.0,-3e-05,-5e-05,3e-05,2e-05,-4e-05,4e-05,0.0001,6.0
28405.0,0.0,-3e-05,-5e-05,3e-05,2e-05,-4e-05,4e-05,0.0001,6.0
28406.0,0.0,-3e-05,-5e-05,3e-05,2e-05,-4e-05,4e-05,0.0001,6.0
28407.0,0.0,-3e-05,-5e-05,3e-05,2e-05,-4e-05,4e-05,0.0001,6.0
28408.0,0.0,-3e-05,-5e-05,3e-05,2e-05,-4e-05,4e-05,0.0001,6.0
28409.0,0.0,-3e-05,-5e-05,3e-05,2e-05,-4e-05,4e-05,0.0001,6.0
28410.0,0.0,-3e-05,-5e-05,3e-05,2e-05,-4e-05,4e-05,0.0001,6.0
28411.0,0.0,-3e-05,-5e-05,3e-05,2e-05,-4e-05,4e-05,0.0001,6.0
28412.0,0.0,-3e-05,-5e-05,3e-05,2e-05,-4e-05,4e-05,0.0001,6.0
28413.0,0.0,-3e-05,-5e-05,3e-05,2e-05,-4e-05,4e-05,0.0001,6.0
28414.0,0.0,-3e-05,-5e-05,3e-05,2e-05,-4e-05,4e-05,0.0001,6.0
28415.0,0.0,-3e-05,-5e-05,3e-05,2e-05,-4e-05,4e-05,0.0001,6.0
28416.0,0.0,-3e-05,-5e-05,3e-05,2e-05,-4e-05,4e-05,0.0001,6.0
28417.0,0.0,-3e-05,-5e-05,3e-05,2e-05,-4e-05,4e-05,0.0001,6.0
28418.0,-6e-05,0.0,4e-05,-3e-05,-7e-05,-0.00012,-0.00018,-0.00013,6.0
28419.0,-0.00015,4e-05,1e-05,-3e-05,1e-05,0.00011,6e-05,7e-05,6.0
28420.0,-0.00015,4e-05,1e-05,-3e-05,1e-05,0.00011,6e-05,7e-05,6.0
28421.0,-0.00015,4e-05,1e-05,-3e-05,1e-05,0.00011,6e-05,7e-05,6.0
28422.0,-0.00015,4e-05,1e-05,-3e-05,1e-05,0.00011,6e-05,7e-05,6.0
28423.0,-0.00015,4e-05,1e-05,-3e-05,1e-05,0.00011,6e-05,7e-05,6.0
28424.0,0.00011,8e-05,-4e-05,-3e-05,0.00011,0.00027,-3e-05,0.0,6.0
28425.0,0.00011,8e-05,-4e-05,-3e-05,0.00011,0.00027,-3e-05,0.0,6.0
28426.0,0.00011,8e-05,-4e-05,-3e-05,0.00011,0.00027,-3e-05,0.0,6.0
28427.0,0.00011,8e-05,-4e-05,-3e-05,0.00011,0.00027,-3e-05,0.0,6.0
28428.0,0.00011,8e-05,-4e-05,-3e-05,0.00011,0.00027,-3e-05,0.0,6.0
28429.0,0.00011,8e-05,-4e-05,-3e-05,0.00011,0.00027,-3e-05,0.0,6.0
28430.0,0.00011,8e-05,-4e-05,-3e-05,0.00011,0.00027,-3e-05,0.0,6.0
28431.0,0.00011,8e-05,-4e-05,-3e-05,0.00011,0.00027,-3e-05,0.0,6.0
28432.0,0.00011,8e-05,-4e-05,-3e-05,0.00011,0.00027,-3e-05,0.0,6.0
28433.0,0.00011,8e-05,-4e-05,-3e-05,0.00011,0.00027,-3e-05,0.0,6.0
28434.0,0.00011,8e-05,-4e-05,-3e-05,0.00011,0.00027,-3e-05,0.0,6.0
28435.0,0.00011,8e-05,-4e-05,-3e-05,0.00011,0.00027,-3e-05,0.0,6.0
28436.0,0.00011,8e-05,-4e-05,-3e-05,0.00011,0.00027,-3e-05,0.0,6.0
28438.0,0.00011,8e-05,-4e-05,-3e-05,0.00011,0.00027,-3e-05,0.0,6.0
28440.0,0.00011,8e-05,-4e-05,-3e-05,0.00011,0.00027,-3e-05,0.0,6.0
28441.0,0.00011,8e-05,-4e-05,-3e-05,0.00011,0.00027,-3e-05,0.0,6.0
28442.0,0.00011,8e-05,-4e-05,-3e-05,0.00011,0.00027,-3e-05,0.0,6.0
28443.0,0.00011,8e-05,-4e-05,-3e-05,0.00011,0.00027,-3e-05,0.0,6.0
28444.0,0.00011,8e-05,-4e-05,-3e-05,0.00011,0.00027,-3e-05,0.0,6.0
28445.0,0.00011,8e-05,-4e-05,-3e-05,0.00011,0.00027,-3e-05,0.0,6.0
28446.0,0.00011,8e-05,-4e-05,-3e-05,0.00011,0.00027,-3e-05,0.0,6.0
28447.0,0.00011,8e-05,-4e-05,-3e-05,0.00011,0.00027,-3e-05,0.0,6.0
28448.0,0.00011,8e-05,-4e-05,-3e-05,0.00011,0.00027,-3e-05,0.0,6.0
28449.0,2e-05,-5e-05,-1e-05,0.0,3e-05,-6e-05,5e-05,5e-05,6.0
28450.0,-0.00011,1e-05,-3e-05,-3e-05,-0.0001,-0.0001,-0.00016,-0.00037,6.0
28451.0,0.00024,0.00017,0.00011,4e-05,2e-05,-7e-05,-0.00016,0.00017,6.0
28452.0,0.00024,0.00017,0.00011,4e-05,2e-05,-7e-05,-0.00016,0.00017,6.0
28453.0,0.00024,0.00017,0.00011,4e-05,2e-05,-7e-05,-0.00016,0.00017,6.0
28454.0,0.00024,0.00017,0.00011,4e-05,2e-05,-7e-05,-0.00016,0.00017,6.0
28455.0,0.00024,0.00017,0.00011,4e-05,2e-05,-7e-05,-0.00016,0.00017,6.0
28456.0,0.00024,0.00017,0.00011,4e-05,2e-05,-7e-05,-0.00016,0.00017,6.0
28457.0,0.00024,0.00017,0.00011,4e-05,2e-05,-7e-05,-0.00016,0.00017,6.0
28458.0,0.00024,0.00017,0.00011,4e-05,2e-05,-7e-05,-0.00016,0.00017,6.0
28459.0,0.00024,0.00017,0.00011,4e-05,2e-05,-7e-05,-0.00016,0.00017,6.0
28460.0,0.00024,0.00017,0.00011,4e-05,2e-05,-7e-05,-0.00016,0.00017,6.0
28461.0,0.00024,0.00017,0.00011,4e-05,2e-05,-7e-05,-0.00016,0.00017,6.0
28462.0,5e-05,-7e-05,-7e-05,-0.00012,-7e-05,-4e-05,-7e-05,-1e-05,6.0
28463.0,5e-05,-7e-05,-7e-05,-0.00012,-7e-05,-4e-05,-7e-05,-1e-05,6.0
28464.0,5e-05,-7e-05,-7e-05,-0.00012,-7e-05,-4e-05,-7e-05,-1e-05,6.0
28465.0,5e-05,-7e-05,-7e-05,-0.00012,-7e-05,-4e-05,-7e-05,-1e-05,6.0
28466.0,5e-05,-7e-05,-7e-05,-0.00012,-7e-05,-4e-05,-7e-05,-1e-05,6.0
28467.0,5e-05,-7e-05,-7e-05,-0.00012,-7e-05,-4e-05,-7e-05,-1e-05,6.0
28468.0,5e-05,-7e-05,-7e-05,-0.00012,-7e-05,-4e-05,-7e-05,-1e-05,6.0
28469.0,5e-05,-7e-05,-7e-05,-0.00012,-7e-05,-4e-05,-7e-05,-1e-05,6.0
28470.0,5e-05,-7e-05,-7e-05,-0.00012,-7e-05,-4e-05,-7e-05,-1e-05,6.0
28471.0,-0.00019,-0.00017,2e-05,-1e-05,-1e-05,-8e-05,6e-05,-0.00032,6.0
28472.0,-0.00019,-0.00017,2e-05,-1e-05,-1e-05,-8e-05,6e-05,-0.00032,6.0
28473.0,-0.00019,-0.00017,2e-05,-1e-05,-1e-05,-8e-05,6e-05,-0.00032,6.0
28474.0,-0.00019,-0.00017,2e-05,-1e-05,-1e-05,-8e-05,6e-05,-0.00032,6.0
28475.0,-0.00019,-0.00017,2e-05,-1e-05,-1e-05,-8e-05,6e-05,-0.00032,6.0
28476.0,-0.00019,-0.00017,2e-05,-1e-05,-1e-05,-8e-05,6e-05,-0.00032,6.0
28477.0,-0.00019,-0.00017,2e-05,-1e-05,-1e-05,-8e-05,6e-05,-0.00032,6.0
28478.0,-0.00019,-0.00017,2e-05,-1e-05,-1e-05,-8e-05,6e-05,-0.00032,6.0
28479.0,-2e-05,-2e-05,-5e-05,-3e-05,-1e-05,-8e-05,-6e-05,-0.00013,6.0
28480.0,5e-05,2e-05,-6e-05,-3e-05,-4e-05,0.0,2e-05,-5e-05,6.0
28481.0,-0.00022,-0.00016,-6e-05,2e-05,9e-05,-5e-05,-0.00014,-0.00017,6.0
28483.0,-0.00022,-0.00016,-6e-05,2e-05,9e-05,-5e-05,-0.00014,-0.00017,6.0
28484.0,-0.00022,-0.00016,-6e-05,2e-05,9e-05,-5e-05,-0.00014,-0.00017,6.0
28485.0,-0.00022,-0.00016,-6e-05,2e-05,9e-05,-5e-05,-0.00014,-0.00017,6.0
28486.0,-0.00022,-0.00016,-6e-05,2e-05,9e-05,-5e-05,-0.00014,-0.00017,6.0
28489.0,-0.00022,-0.00016,-6e-05,2e-05,9e-05,-5e-05,-0.00014,-0.00017,6.0
28490.0,-0.00022,-0.00016,-6e-05,2e-05,9e-05,-5e-05,-0.00014,-0.00017,6.0
28491.0,-0.00022,-0.00016,-6e-05,2e-05,9e-05,-5e-05,-0.00014,-0.00017,6.0
28492.0,-0.00022,-0.00016,-6e-05,2e-05,9e-05,-5e-05,-0.00014,-0.00017,6.0
28493.0,-0.00022,-0.00016,-6e-05,2e-05,9e-05,-5e-05,-0.00014,-0.00017,6.0
28494.0,-0.00022,-0.00016,-6e-05,2e-05,9e-05,-5e-05,-0.00014,-0.00017,6.0
28495.0,-0.00022,-0.00016,-6e-05,2e-05,9e-05,-5e-05,-0.00014,-0.00017,6.0
28496.0,-0.00022,-0.00016,-6e-05,2e-05,9e-05,-5e-05,-0.00014,-0.00017,6.0
28497.0,-0.00022,-0.00016,-6e-05,2e-05,9e-05,-5e-05,-0.00014,-0.00017,6.0
28498.0,-0.00022,-0.00016,-6e-05,2e-05,9e-05,-5e-05,-0.00014,-0.00017,6.0
28499.0,-0.00022,-0.00016,-6e-05,2e-05,9e-05,-5e-05,-0.00014,-0.00017,6.0
28500.0,-0.00022,-0.00016,-6e-05,2e-05,9e-05,-5e-05,-0.00014,-0.00017,6.0
28501.0,-7e-05,-6e-05,-3e-05,-1e-05,-5e-05,-2e-05,-9e-05,-0.00043,6.0
28502.0,0.00028,0.00014,-7e-05,-2e-05,-8e-05,-9e-05,3e-05,0.00037,6.0
28503.0,0.00028,0.00014,-7e-05,-2e-05,-8e-05,-9e-05,3e-05,0.00037,6.0
28504.0,0.00028,0.00014,-7e-05,-2e-05,-8e-05,-9e-05,3e-05,0.00037,6.0
28505.0,0.00028,0.00014,-7e-05,-2e-05,-8e-05,-9e-05,3e-05,0.00037,6.0
28506.0,0.00028,0.00014,-7e-05,-2e-05,-8e-05,-9e-05,3e-05,0.00037,6.0
28507.0,0.00028,0.00014,-7e-05,-2e-05,-8e-05,-9e-05,3e-05,0.00037,6.0
28508.0,0.00028,0.00014,-7e-05,-2e-05,-8e-05,-9e-05,3e-05,0.00037,6.0
28509.0,0.00028,0.00014,-7e-05,-2e-05,-8e-05,-9e-05,3e-05,0.00037,6.0
28510.0,0.00028,0.00014,-7e-05,-2e-05,-8e-05,-9e-05,3e-05,0.00037,6.0
28511.0,0.00028,0.00014,-7e-05,-2e-05,-8e-05,-9e-05,3e-05,0.00037,6.0
28512.0,0.00028,0.00014,-7e-05,-2e-05,-8e-05,-9e-05,3e-05,0.00037,6.0
28513.0,0.00028,0.00014,-7e-05,-2e-05,-8e-05,-9e-05,3e-05,0.00037,6.0
28514.0,0.00028,0.00014,-7e-05,-2e-05,-8e-05,-9e-05,3e-05,0.00037,6.0
28515.0,0.00028,0.00014,-7e-05,-2e-05,-8e-05,-9e-05,3e-05,0.00037,6.0
28516.0,0.00028,0.00014,-7e-05,-2e-05,-8e-05,-9e-05,3e-05,0.00037,6.0
28517.0,0.00028,0.00014,-7e-05,-2e-05,-8e-05,-9e-05,3e-05,0.00037,6.0
28518.0,0.00028,0.00014,-7e-05,-2e-05,-8e-05,-9e-05,3e-05,0.00037,6.0
28519.0,0.00028,0.00014,-7e-05,-2e-05,-8e-05,-9e-05,3e-05,0.00037,6.0
28520.0,0.00028,0.00014,-7e-05,-2e-05,-8e-05,-9e-05,3e-05,0.00037,6.0
28521.0,0.00028,0.00014,-7e-05,-2e-05,-8e-05,-9e-05,3e-05,0.00037,6.0
28522.0,0.00028,0.00014,-7e-05,-2e-05,-8e-05,-9e-05,3e-05,0.00037,6.0
28523.0,0.00028,0.00014,-7e-05,-2e-05,-8e-05,-9e-05,3e-05,0.00037,6.0
28524.0,5e-05,6e-05,1e-05,-4e-05,-0.00017,-0.00011,-9e-05,2e-05,6.0
28525.0,-0.00013,-5e-05,-1e-05,5e-05,2e-05,-1e-05,-7e-05,-0.00024,6.0
28526.0,-0.00013,-5e-05,-1e-05,5e-05,2e-05,-1e-05,-7e-05,-0.00024,6.0
28527.0,-0.00013,-5e-05,-1e-05,5e-05,2e-05,-1e-05,-7e-05,-0.00024,6.0
28528.0,-0.00013,-5e-05,-1e-05,5e-05,2e-05,-1e-05,-7e-05,-0.00024,6.0
28529.0,-0.00013,-5e-05,-1e-05,5e-05,2e-05,-1e-05,-7e-05,-0.00024,6.0
28531.0,-0.00013,-5e-05,-1e-05,5e-05,2e-05,-1e-05,-7e-05,-0.00024,6.0
28532.0,-0.00013,-5e-05,-1e-05,5e-05,2e-05,-1e-05,-7e-05,-0.00024,6.0
28533.0,-0.00013,-5e-05,-1e-05,5e-05,2e-05,-1e-05,-7e-05,-0.00024,6.0
28534.0,-0.00013,-5e-05,-1e-05,5e-05,2e-05,-1e-05,-7e-05,-0.00024,6.0
28535.0,-0.00013,-5e-05,-1e-05,5e-05,2e-05,-1e-05,-7e-05,-0.00024,6.0
28536.0,-0.00013,-5e-05,-1e-05,5e-05,2e-05,-1e-05,-7e-05,-0.00024,6.0
28539.0,-0.00013,-5e-05,-1e-05,5e-05,2e-05,-1e-05,-7e-05,-0.00024,6.0
28540.0,-0.00013,-5e-05,-1e-05,5e-05,2e-05,-1e-05,-7e-05,-0.00024,6.0
28541.0,-0.00013,-5e-05,-1e-05,5e-05,2e-05,-1e-05,-7e-05,-0.00024,6.0
28542.0,-0.00013,-5e-05,-1e-05,5e-05,2e-05,-1e-05,-7e-05,-0.00024,6.0
28543.0,-0.00013,-5e-05,-1e-05,5e-05,2e-05,-1e-05,-7e-05,-0.00024,6.0
28544.0,-0.00013,-5e-05,-1e-05,5e-05,2e-05,-1e-05,-7e-05,-0.00024,6.0
28545.0,-0.00013,-5e-05,-1e-05,5e-05,2e-05,-1e-05,-7e-05,-0.00024,6.0
28546.0,-0.00024,-0.00017,0.0,-2e-05,-3e-05,-4e-05,-8e-05,-0.00041,6.0
28547.0,-0.00024,-0.00017,0.0,-2e-05,-3e-05,-4e-05,-8e-05,-0.00041,6.0
28548.0,0.0,2e-05,9e-05,3e-05,-8e-05,-0.00019,-0.00015,2e-05,6.0
28549.0,0.0,2e-05,9e-05,3e-05,-8e-05,-0.00019,-0.00015,2e-05,6.0
28550.0,0.0,2e-05,9e-05,3e-05,-8e-05,-0.00019,-0.00015,2e-05,6.0
28551.0,0.0,2e-05,9e-05,3e-05,-8e-05,-0.00019,-0.00015,2e-05,6.0
28552.0,0.0,2e-05,9e-05,3e-05,-8e-05,-0.00019,-0.00015,2e-05,6.0
28553.0,0.0,2e-05,9e-05,3e-05,-8e-05,-0.00019,-0.00015,2e-05,6.0
28554.0,0.0,2e-05,9e-05,3e-05,-8e-05,-0.00019,-0.00015,2e-05,6.0
28555.0,0.0,2e-05,9e-05,3e-05,-8e-05,-0.00019,-0.00015,2e-05,6.0
28556.0,0.0,2e-05,9e-05,3e-05,-8e-05,-0.00019,-0.00015,2e-05,6.0
28557.0,0.0,2e-05,9e-05,3e-05,-8e-05,-0.00019,-0.00015,2e-05,6.0
28558.0,0.0,2e-05,9e-05,3e-05,-8e-05,-0.00019,-0.00015,2e-05,6.0
28559.0,0.0,2e-05,9e-05,3e-05,-8e-05,-0.00019,-0.00015,2e-05,6.0
28560.0,0.0,2e-05,9e-05,3e-05,-8e-05,-0.00019,-0.00015,2e-05,6.0
28561.0,6e-05,9e-05,2e-05,0.0,6e-05,6e-05,1e-05,-3e-05,6.0
28562.0,5e-05,0.00012,-1e-05,-2e-05,2e-05,-2e-05,5e-05,0.00018,6.0
28563.0,0.00015,-5e-05,-9e-05,-7e-05,-0.00015,-0.00029,-0.00014,-0.00012,6.0
28564.0,0.00015,-5e-05,-9e-05,-7e-05,-0.00015,-0.00029,-0.00014,-0.00012,6.0
28565.0,0.00015,-5e-05,-9e-05,-7e-05,-0.00015,-0.00029,-0.00014,-0.00012,6.0
28566.0,0.00015,-5e-05,-9e-05,-7e-05,-0.00015,-0.00029,-0.00014,-0.00012,6.0
28567.0,0.00015,-5e-05,-9e-05,-7e-05,-0.00015,-0.00029,-0.00014,-0.00012,6.0
28568.0,0.00015,-5e-05,-9e-05,-7e-05,-0.00015,-0.00029,-0.00014,-0.00012,6.0
28569.0,0.00015,-5e-05,-9e-05,-7e-05,-0.00015,-0.00029,-0.00014,-0.00012,6.0
28570.0,0.00015,-5e-05,-9e-05,-7e-05,-0.00015,-0.00029,-0.00014,-0.00012,6.0
28571.0,0.00015,-5e-05,-9e-05,-7e-05,-0.00015,-0.00029,-0.00014,-0.00012,6.0
28572.0,0.00015,-5e-05,-9e-05,-7e-05,-0.00015,-0.00029,-0.00014,-0.00012,6.0
28573.0,0.00015,-5e-05,-9e-05,-7e-05,-0.00015,-0.00029,-0.00014,-0.00012,6.0
28574.0,0.00015,-5e-05,-9e-05,-7e-05,-0.00015,-0.00029,-0.00014,-0.00012,6.0
28575.0,0.00015,-5e-05,-9e-05,-7e-05,-0.00015,-0.00029,-0.00014,-0.00012,6.0
28576.0,0.00015,-5e-05,-9e-05,-7e-05,-0.00015,-0.00029,-0.00014,-0.00012,6.0
28577.0,0.00015,-5e-05,-9e-05,-7e-05,-0.00015,-0.00029,-0.00014,-0.00012,6.0
28578.0,0.00015,-5e-05,-9e-05,-7e-05,-0.00015,-0.00029,-0.00014,-0.00012,6.0
28579.0,0.00015,-5e-05,-9e-05,-7e-05,-0.00015,-0.00029,-0.00014,-0.00012,6.0
28580.0,0.00015,-5e-05,-9e-05,-7e-05,-0.00015,-0.00029,-0.00014,-0.00012,6.0
28581.0,0.00015,-5e-05,-9e-05,-7e-05,-0.00015,-0.00029,-0.00014,-0.00012,6.0
28582.0,0.00015,-5e-05,-9e-05,-7e-05,-0.00015,-0.00029,-0.00014,-0.00012,6.0
28583.0,-0.00018,-0.00012,-5e-05,-2e-05,-7e-05,-0.0001,7e-05,-2e-05,6.0
28584.0,-0.00018,-0.00012,-5e-05,-2e-05,-7e-05,-0.0001,7e-05,-2e-05,6.0
28585.0,-0.00018,-0.00012,-5e-05,-2e-05,-7e-05,-0.0001,7e-05,-2e-05,6.0
28586.0,-0.00018,-0.00012,-5e-05,-2e-05,-7e-05,-0.0001,7e-05,-2e-05,6.0
28588.0,-0.00018,-0.00012,-5e-05,-2e-05,-7e-05,-0.0001,7e-05,-2e-05,6.0
28590.0,-0.00018,-0.00012,-5e-05,-2e-05,-7e-05,-0.0001,7e-05,-2e-05,6.0
28591.0,-0.00018,-0.00012,-5e-05,-2e-05,-7e-05,-0.0001,7e-05,-2e-05,6.0
28592.0,-0.00018,-0.00012,-5e-05,-2e-05,-7e-05,-0.0001,7e-05,-2e-05,6.0
28593.0,-0.00018,-0.00012,-5e-05,-2e-05,-7e-05,-0.0001,7e-05,-2e-05,6.0
28594.0,-0.00018,-0.00012,-5e-05,-2e-05,-7e-05,-0.0001,7e-05,-2e-05,6.0
28595.0,-0.00018,-0.00012,-5e-05,-2e-05,-7e-05,-0.0001,7e-05,-2e-05,6.0
28596.0,-0.00018,-0.00012,-5e-05,-2e-05,-7e-05,-0.0001,7e-05,-2e-05,6.0
28597.0,-0.00018,-0.00012,-5e-05,-2e-05,-7e-05,-0.0001,7e-05,-2e-05,6.0
28598.0,-0.00018,-0.00012,-5e-05,-2e-05,-7e-05,-0.0001,7e-05,-2e-05,6.0
28599.0,-0.00018,-0.00012,-5e-05,-2e-05,-7e-05,-0.0001,7e-05,-2e-05,6.0
28600.0,-4e-05,-3e-05,5e-05,6e-05,0.00017,0.0001,0.00011,-2e-05,6.0
28601.0,2e-05,-7e-05,8e-05,5e-05,0.00012,6e-05,7e-05,0.00014,6.0
28602.0,2e-05,-7e-05,8e-05,5e-05,0.00012,6e-05,7e-05,0.00014,6.0
28603.0,2e-05,-7e-05,8e-05,5e-05,0.00012,6e-05,7e-05,0.00014,6.0
28604.0,-2e-05,6e-05,8e-05,2e-05,-3e-05,4e-05,-0.00014,-0.00017,6.0
28605.0,-2e-05,6e-05,8e-05,2e-05,-3e-05,4e-05,-0.00014,-0.00017,6.0
28606.0,-2e-05,6e-05,8e-05,2e-05,-3e-05,4e-05,-0.00014,-0.00017,6.0
28607.0,-2e-05,6e-05,8e-05,2e-05,-3e-05,4e-05,-0.00014,-0.00017,6.0
28608.0,-2e-05,6e-05,8e-05,2e-05,-3e-05,4e-05,-0.00014,-0.00017,6.0
28609.0,-2e-05,6e-05,8e-05,2e-05,-3e-05,4e-05,-0.00014,-0.00017,6.0
28610.0,-2e-05,6e-05,8e-05,2e-05,-3e-05,4e-05,-0.00014,-0.00017,6.0
28611.0,-2e-05,6e-05,8e-05,2e-05,-3e-05,4e-05,-0.00014,-0.00017,6.0
28612.0,-2e-05,6e-05,8e-05,2e-05,-3e-05,4e-05,-0.00014,-0.00017,6.0
28613.0,-2e-05,6e-05,8e-05,2e-05,-3e-05,4e-05,-0.00014,-0.00017,6.0
28614.0,-2e-05,6e-05,8e-05,2e-05,-3e-05,4e-05,-0.00014,-0.00017,6.0
28615.0,-2e-05,6e-05,8e-05,2e-05,-3e-05,4e-05,-0.00014,-0.00017,6.0
28616.0,-2e-05,6e-05,8e-05,2e-05,-3e-05,4e-05,-0.00014,-0.00017,6.0
28617.0,-2e-05,6e-05,8e-05,2e-05,-3e-05,4e-05,-0.00014,-0.00017,6.0
28618.0,-2e-05,6e-05,8e-05,2e-05,-3e-05,4e-05,-0.00014,-0.00017,6.0
28619.0,-2e-05,6e-05,8e-05,2e-05,-3e-05,4e-05,-0.00014,-0.00017,6.0
28620.0,-2e-05,6e-05,8e-05,2e-05,-3e-05,4e-05,-0.00014,-0.00017,6.0
28621.0,0.0,6e-05,1e-05,0.00011,0.0002,4e-05,-0.00018,-0.00017,6.0
28622.0,0.0,6e-05,1e-05,0.00011,0.0002,4e-05,-0.00018,-0.00017,6.0
28623.0,-0.0001,0.0001,4e-05,5e-05,0.0,0.00018,0.0004,0.00022,6.0
28624.0,-0.0001,0.0001,4e-05,5e-05,0.0,0.00018,0.0004,0.00022,6.0
28625.0,-0.0001,0.0001,4e-05,5e-05,0.0,0.00018,0.0004,0.00022,6.0
28626.0,-0.0001,0.0001,4e-05,5e-05,0.0,0.00018,0.0004,0.00022,6.0
28627.0,-0.0001,0.0001,4e-05,5e-05,0.0,0.00018,0.0004,0.00022,6.0
28628.0,-0.0001,0.0001,4e-05,5e-05,0.0,0.00018,0.0004,0.00022,6.0
28629.0,-0.0001,0.0001,4e-05,5e-05,0.0,0.00018,0.0004,0.00022,6.0
28630.0,-0.0001,0.0001,4e-05,5e-05,0.0,0.00018,0.0004,0.00022,6.0
28631.0,-0.0001,0.0001,4e-05,5e-05,0.0,0.00018,0.0004,0.00022,6.0
28632.0,-0.0001,0.0001,4e-05,5e-05,0.0,0.00018,0.0004,0.00022,6.0
28633.0,-0.0001,0.0001,4e-05,5e-05,0.0,0.00018,0.0004,0.00022,6.0
28634.0,-0.0001,0.0001,4e-05,5e-05,0.0,0.00018,0.0004,0.00022,6.0
28635.0,-0.0001,0.0001,4e-05,5e-05,0.0,0.00018,0.0004,0.00022,6.0
28636.0,-0.0001,0.0001,4e-05,5e-05,0.0,0.00018,0.0004,0.00022,6.0
28638.0,-0.0001,0.0001,4e-05,5e-05,0.0,0.00018,0.0004,0.00022,6.0
28639.0,-0.0001,0.0001,4e-05,5e-05,0.0,0.00018,0.0004,0.00022,6.0
28640.0,-0.0001,0.0001,4e-05,5e-05,0.0,0.00018,0.0004,0.00022,6.0
28641.0,-0.0001,0.0001,4e-05,5e-05,0.0,0.00018,0.0004,0.00022,6.0
28642.0,-0.0001,0.0001,4e-05,5e-05,0.0,0.00018,0.0004,0.00022,6.0
28643.0,-0.0001,0.0001,4e-05,5e-05,0.0,0.00018,0.0004,0.00022,6.0
28644.0,-0.0001,0.0001,4e-05,5e-05,0.0,0.00018,0.0004,0.00022,6.0
28645.0,-0.0001,0.0001,4e-05,5e-05,0.0,0.00018,0.0004,0.00022,6.0
28646.0,-0.0001,0.0001,4e-05,5e-05,0.0,0.00018,0.0004,0.00022,6.0
28647.0,-0.0001,0.0001,4e-05,5e-05,0.0,0.00018,0.0004,0.00022,6.0
28648.0,-0.0001,0.0001,4e-05,5e-05,0.0,0.00018,0.0004,0.00022,6.0
28649.0,-0.0001,0.0001,4e-05,5e-05,0.0,0.00018,0.0004,0.00022,6.0
28650.0,-0.0001,0.0001,4e-05,5e-05,0.0,0.00018,0.0004,0.00022,6.0
28651.0,0.0001,0.00016,-9e-05,-0.00013,-0.00024,-0.00017,-0.0001,7e-05,6.0
28652.0,-0.0001,9e-05,5e-05,1e-05,-3e-05,2e-05,3e-05,-7e-05,6.0
28653.0,-0.0001,9e-05,5e-05,1e-05,-3e-05,2e-05,3e-05,-7e-05,6.0
28654.0,-0.0001,9e-05,5e-05,1e-05,-3e-05,2e-05,3e-05,-7e-05,6.0
28655.0,-0.0001,9e-05,5e-05,1e-05,-3e-05,2e-05,3e-05,-7e-05,6.0
28656.0,-0.0001,9e-05,5e-05,1e-05,-3e-05,2e-05,3e-05,-7e-05,6.0
28657.0,-0.00015,-0.00015,0.0,1e-05,0.0001,3e-05,-5e-05,-0.0002,6.0
28658.0,9e-05,-7e-05,-8e-05,-2e-05,2e-05,-5e-05,5e-05,0.00017,6.0
28659.0,9e-05,-7e-05,-8e-05,-2e-05,2e-05,-5e-05,5e-05,0.00017,6.0
28660.0,9e-05,-7e-05,-8e-05,-2e-05,2e-05,-5e-05,5e-05,0.00017,6.0
28661.0,9e-05,-7e-05,-8e-05,-2e-05,2e-05,-5e-05,5e-05,0.00017,6.0
28662.0,9e-05,-7e-05,-8e-05,-2e-05,2e-05,-5e-05,5e-05,0.00017,6.0
28663.0,9e-05,-7e-05,-8e-05,-2e-05,2e-05,-5e-05,5e-05,0.00017,6.0
28664.0,9e-05,-7e-05,-8e-05,-2e-05,2e-05,-5e-05,5e-05,0.00017,6.0
28665.0,9e-05,-7e-05,-8e-05,-2e-05,2e-05,-5e-05,5e-05,0.00017,6.0
28666.0,9e-05,-7e-05,-8e-05,-2e-05,2e-05,-5e-05,5e-05,0.00017,6.0
28667.0,9e-05,-7e-05,-8e-05,-2e-05,2e-05,-5e-05,5e-05,0.00017,6.0
28668.0,9e-05,-7e-05,-8e-05,-2e-05,2e-05,-5e-05,5e-05,0.00017,6.0
28669.0,9e-05,-7e-05,-8e-05,-2e-05,2e-05,-5e-05,5e-05,0.00017,6.0
28671.0,9e-05,-7e-05,-8e-05,-2e-05,2e-05,-5e-05,5e-05,0.00017,6.0
28672.0,0.00015,-5e-05,-6e-05,-3e-05,-1e-05,1e-05,-7e-05,3e-05,6.0
28673.0,0.00015,-5e-05,-6e-05,-3e-05,-1e-05,1e-05,-7e-05,3e-05,6.0
28674.0,0.00015,-5e-05,-6e-05,-3e-05,-1e-05,1e-05,-7e-05,3e-05,6.0
28675.0,0.00015,-5e-05,-6e-05,-3e-05,-1e-05,1e-05,-7e-05,3e-05,6.0
28676.0,0.00015,-5e-05,-6e-05,-3e-05,-1e-05,1e-05,-7e-05,3e-05,6.0
28677.0,0.00015,-5e-05,-6e-05,-3e-05,-1e-05,1e-05,-7e-05,3e-05,6.0
28678.0,0.00015,-5e-05,-6e-05,-3e-05,-1e-05,1e-05,-7e-05,3e-05,6.0
28679.0,0.00015,-5e-05,-6e-05,-3e-05,-1e-05,1e-05,-7e-05,3e-05,6.0
28680.0,0.00015,-5e-05,-6e-05,-3e-05,-1e-05,1e-05,-7e-05,3e-05,6.0
28681.0,0.00015,-5e-05,-6e-05,-3e-05,-1e-05,1e-05,-7e-05,3e-05,6.0
28682.0,0.00015,-5e-05,-6e-05,-3e-05,-1e-05,1e-05,-7e-05,3e-05,6.0
28683.0,0.00015,-5e-05,-6e-05,-3e-05,-1e-05,1e-05,-7e-05,3e-05,6.0
28684.0,0.00015,-5e-05,-6e-05,-3e-05,-1e-05,1e-05,-7e-05,3e-05,6.0
28685.0,0.00015,-5e-05,-6e-05,-3e-05,-1e-05,1e-05,-7e-05,3e-05,6.0
28686.0,0.00015,-5e-05,-6e-05,-3e-05,-1e-05,1e-05,-7e-05,3e-05,6.0
28689.0,0.00015,-5e-05,-6e-05,-3e-05,-1e-05,1e-05,-7e-05,3e-05,6.0
28690.0,0.00015,-5e-05,-6e-05,-3e-05,-1e-05,1e-05,-7e-05,3e-05,6.0
28691.0,0.00015,-5e-05,-6e-05,-3e-05,-1e-05,1e-05,-7e-05,3e-05,6.0
28692.0,0.00015,-5e-05,-6e-05,-3e-05,-1e-05,1e-05,-7e-05,3e-05,6.0
28693.0,0.00015,-5e-05,-6e-05,-3e-05,-1e-05,1e-05,-7e-05,3e-05,6.0
28694.0,0.00015,-5e-05,-6e-05,-3e-05,-1e-05,1e-05,-7e-05,3e-05,6.0
28695.0,0.00015,-5e-05,-6e-05,-3e-05,-1e-05,1e-05,-7e-05,3e-05,6.0
28696.0,3e-05,2e-05,-7e-05,-5e-05,-3e-05,-2e-05,-3e-05,-1e-05,6.0
28697.0,-9e-05,1e-05,-3e-05,-4e-05,5e-05,3e-05,-0.00013,4e-05,6.0
28698.0,-9e-05,1e-05,-3e-05,-4e-05,5e-05,3e-05,-0.00013,4e-05,6.0
28699.0,-9e-05,1e-05,-3e-05,-4e-05,5e-05,3e-05,-0.00013,4e-05,6.0
28700.0,-9e-05,1e-05,-3e-05,-4e-05,5e-05,3e-05,-0.00013,4e-05,6.0
28701.0,-9e-05,1e-05,-3e-05,-4e-05,5e-05,3e-05,-0.00013,4e-05,6.0
28702.0,-9e-05,1e-05,-3e-05,-4e-05,5e-05,3e-05,-0.00013,4e-05,6.0
28703.0,-9e-05,1e-05,-3e-05,-4e-05,5e-05,3e-05,-0.00013,4e-05,6.0
28704.0,-9e-05,1e-05,-3e-05,-4e-05,5e-05,3e-05,-0.00013,4e-05,6.0
28705.0,-9e-05,1e-05,-3e-05,-4e-05,5e-05,3e-05,-0.00013,4e-05,6.0
28706.0,-9e-05,1e-05,-3e-05,-4e-05,5e-05,3e-05,-0.00013,4e-05,6.0
28707.0,-9e-05,1e-05,-3e-05,-4e-05,5e-05,3e-05,-0.00013,4e-05,6.0
28708.0,-9e-05,1e-05,-3e-05,-4e-05,5e-05,3e-05,-0.00013,4e-05,6.0
28709.0,-9e-05,1e-05,-3e-05,-4e-05,5e-05,3e-05,-0.00013,4e-05,6.0
28710.0,-9e-05,1e-05,-3e-05,-4e-05,5e-05,3e-05,-0.00013,4e-05,6.0
28711.0,-9e-05,1e-05,-3e-05,-4e-05,5e-05,3e-05,-0.00013,4e-05,6.0
28712.0,-9e-05,1e-05,-3e-05,-4e-05,5e-05,3e-05,-0.00013,4e-05,6.0
28713.0,-9e-05,1e-05,-3e-05,-4e-05,5e-05,3e-05,-0.00013,4e-05,6.0
28714.0,-9e-05,1e-05,-3e-05,-4e-05,5e-05,3e-05,-0.00013,4e-05,6.0
28715.0,-9e-05,1e-05,-3e-05,-4e-05,5e-05,3e-05,-0.00013,4e-05,6.0
28716.0,-9e-05,1e-05,-3e-05,-4e-05,5e-05,3e-05,-0.00013,4e-05,6.0
28717.0,-9e-05,1e-05,-3e-05,-4e-05,5e-05,3e-05,-0.00013,4e-05,6.0
28718.0,-9e-05,1e-05,-3e-05,-4e-05,5e-05,3e-05,-0.00013,4e-05,6.0
28719.0,-9e-05,1e-05,-3e-05,-4e-05,5e-05,3e-05,-0.00013,4e-05,6.0
28720.0,-9e-05,1e-05,-3e-05,-4e-05,5e-05,3e-05,-0.00013,4e-05,6.0
28721.0,-9e-05,1e-05,-3e-05,-4e-05,5e-05,3e-05,-0.00013,4e-05,6.0
28722.0,-9e-05,1e-05,-3e-05,-4e-05,5e-05,3e-05,-0.00013,4e-05,6.0
28723.0,-9e-05,1e-05,-3e-05,-4e-05,5e-05,3e-05,-0.00013,4e-05,6.0
28724.0,-9e-05,1e-05,-3e-05,-4e-05,5e-05,3e-05,-0.00013,4e-05,6.0
28725.0,-9e-05,1e-05,-3e-05,-4e-05,5e-05,3e-05,-0.00013,4e-05,6.0
28726.0,-9e-05,1e-05,-3e-05,-4e-05,5e-05,3e-05,-0.00013,4e-05,6.0
28727.0,0.00019,-1e-05,-6e-05,-2e-05,-4e-05,9e-05,0.0001,0.00019,6.0
28728.0,0.00019,-1e-05,-6e-05,-2e-05,-4e-05,9e-05,0.0001,0.00019,6.0
28729.0,-0.0001,-0.00011,0.0,-5e-05,-6e-05,-3e-05,3e-05,0.00012,6.0
28730.0,-3e-05,5e-05,7e-05,-1e-05,-0.00016,3e-05,0.00012,0.00014,6.0
28731.0,-3e-05,5e-05,7e-05,-1e-05,-0.00016,3e-05,0.00012,0.00014,6.0
28732.0,-3e-05,5e-05,7e-05,-1e-05,-0.00016,3e-05,0.00012,0.00014,6.0
28733.0,-3e-05,5e-05,7e-05,-1e-05,-0.00016,3e-05,0.00012,0.00014,6.0
28734.0,-3e-05,5e-05,7e-05,-1e-05,-0.00016,3e-05,0.00012,0.00014,6.0
28735.0,-3e-05,5e-05,7e-05,-1e-05,-0.00016,3e-05,0.00012,0.00014,6.0
28736.0,-3e-05,5e-05,7e-05,-1e-05,-0.00016,3e-05,0.00012,0.00014,6.0
28738.0,-3e-05,5e-05,7e-05,-1e-05,-0.00016,3e-05,0.00012,0.00014,6.0
28739.0,-3e-05,5e-05,7e-05,-1e-05,-0.00016,3e-05,0.00012,0.00014,6.0
28740.0,-3e-05,5e-05,7e-05,-1e-05,-0.00016,3e-05,0.00012,0.00014,6.0
28741.0,-3e-05,5e-05,7e-05,-1e-05,-0.00016,3e-05,0.00012,0.00014,6.0
28742.0,-3e-05,5e-05,7e-05,-1e-05,-0.00016,3e-05,0.00012,0.00014,6.0
28743.0,-3e-05,5e-05,7e-05,-1e-05,-0.00016,3e-05,0.00012,0.00014,6.0
28744.0,-3e-05,5e-05,7e-05,-1e-05,-0.00016,3e-05,0.00012,0.00014,6.0
28745.0,-3e-05,5e-05,7e-05,-1e-05,-0.00016,3e-05,0.00012,0.00014,6.0
28746.0,-3e-05,5e-05,7e-05,-1e-05,-0.00016,3e-05,0.00012,0.00014,6.0
28747.0,-3e-05,5e-05,7e-05,-1e-05,-0.00016,3e-05,0.00012,0.00014,6.0
28748.0,-3e-05,5e-05,7e-05,-1e-05,-0.00016,3e-05,0.00012,0.00014,6.0
28749.0,-3e-05,5e-05,7e-05,-1e-05,-0.00016,3e-05,0.00012,0.00014,6.0
28750.0,-5e-05,-5e-05,0.0,-5e-05,-0.00016,-0.0001,-9e-05,-0.00025,6.0
28751.0,1e-05,0.0,-6e-05,-6e-05,-0.0001,-1e-05,-8e-05,0.00015,6.0
28752.0,1e-05,0.0,-6e-05,-6e-05,-0.0001,-1e-05,-8e-05,0.00015,6.0
28753.0,1e-05,0.0,-6e-05,-6e-05,-0.0001,-1e-05,-8e-05,0.00015,6.0
28754.0,1e-05,0.0,-6e-05,-6e-05,-0.0001,-1e-05,-8e-05,0.00015,6.0
28755.0,1e-05,0.0,-6e-05,-6e-05,-0.0001,-1e-05,-8e-05,0.00015,6.0
28756.0,1e-05,0.0,-6e-05,-6e-05,-0.0001,-1e-05,-8e-05,0.00015,6.0
28757.0,1e-05,0.0,-6e-05,-6e-05,-0.0001,-1e-05,-8e-05,0.00015,6.0
28758.0,1e-05,0.0,-6e-05,-6e-05,-0.0001,-1e-05,-8e-05,0.00015,6.0
28759.0,1e-05,0.0,-6e-05,-6e-05,-0.0001,-1e-05,-8e-05,0.00015,6.0
28760.0,1e-05,0.0,-6e-05,-6e-05,-0.0001,-1e-05,-8e-05,0.00015,6.0
28761.0,1e-05,0.0,-6e-05,-6e-05,-0.0001,-1e-05,-8e-05,0.00015,6.0
28762.0,1e-05,0.0,-6e-05,-6e-05,-0.0001,-1e-05,-8e-05,0.00015,6.0
28763.0,1e-05,0.0,-6e-05,-6e-05,-0.0001,-1e-05,-8e-05,0.00015,6.0
28764.0,1e-05,0.0,-6e-05,-6e-05,-0.0001,-1e-05,-8e-05,0.00015,6.0
28765.0,1e-05,0.0,-6e-05,-6e-05,-0.0001,-1e-05,-8e-05,0.00015,6.0
28766.0,1e-05,0.0,-6e-05,-6e-05,-0.0001,-1e-05,-8e-05,0.00015,6.0
28767.0,1e-05,0.0,-6e-05,-6e-05,-0.0001,-1e-05,-8e-05,0.00015,6.0
28768.0,1e-05,0.0,-6e-05,-6e-05,-0.0001,-1e-05,-8e-05,0.00015,6.0
28769.0,1e-05,0.0,-6e-05,-6e-05,-0.0001,-1e-05,-8e-05,0.00015,6.0
28770.0,1e-05,0.0,-6e-05,-6e-05,-0.0001,-1e-05,-8e-05,0.00015,6.0
28771.0,1e-05,0.0,-6e-05,-6e-05,-0.0001,-1e-05,-8e-05,0.00015,6.0
28772.0,1e-05,0.0,-6e-05,-6e-05,-0.0001,-1e-05,-8e-05,0.00015,6.0
