time,channel1,channel2,channel3,channel4,channel5,channel6,channel7,channel8,class
35089.0,-5e-05,3e-05,0.00013,1e-05,1e-05,-5e-05,-0.00032,-0.00011,2.0
35090.0,-5e-05,3e-05,0.00013,1e-05,1e-05,-5e-05,-0.00032,-0.00011,2.0
35091.0,-5e-05,3e-05,0.00013,1e-05,1e-05,-5e-05,-0.00032,-0.00011,2.0
35092.0,-5e-05,3e-05,0.00013,1e-05,1e-05,-5e-05,-0.00032,-0.00011,2.0
35094.0,-5e-05,3e-05,0.00013,1e-05,1e-05,-5e-05,-0.00032,-0.00011,2.0
35095.0,-5e-05,3e-05,0.00013,1e-05,1e-05,-5e-05,-0.00032,-0.00011,2.0
35096.0,-5e-05,3e-05,0.00013,1e-05,1e-05,-5e-05,-0.00032,-0.00011,2.0
35097.0,-5e-05,3e-05,0.00013,1e-05,1e-05,-5e-05,-0.00032,-0.00011,2.0
35098.0,-5e-05,3e-05,0.00013,1e-05,1e-05,-5e-05,-0.00032,-0.00011,2.0
35099.0,-5e-05,3e-05,0.00013,1e-05,1e-05,-5e-05,-0.00032,-0.00011,2.0
35100.0,-5e-05,3e-05,0.00013,1e-05,1e-05,-5e-05,-0.00032,-0.00011,2.0
35101.0,-5e-05,3e-05,0.00013,1e-05,1e-05,-5e-05,-0.00032,-0.00011,2.0
35102.0,-5e-05,3e-05,0.00013,1e-05,1e-05,-5e-05,-0.00032,-0.00011,2.0
35103.0,-5e-05,3e-05,0.00013,1e-05,1e-05,-5e-05,-0.00032,-0.00011,2.0
35104.0,-5e-05,3e-05,0.00013,1e-05,1e-05,-5e-05,-0.00032,-0.00011,2.0
35105.0,-5e-05,3e-05,0.00013,1e-05,1e-05,-5e-05,-0.00032,-0.00011,2.0
35106.0,-5e-05,3e-05,0.00013,1e-05,1e-05,-5e-05,-0.00032,-0.00011,2.0
35107.0,-5e-05,3e-05,0.00013,1e-05,1e-05,-5e-05,-0.00032,-0.00011,2.0
35108.0,-5e-05,3e-05,0.00013,1e-05,1e-05,-5e-05,-0.00032,-0.00011,2.0
35109.0,-5e-05,3e-05,0.00013,1e-05,1e-05,-5e-05,-0.00032,-0.00011,2.0
35110.0,0.00022,9e-05,6e-05,8e-05,-1e-05,2e-05,0.00013,5e-05,2.0
35111.0,-6e-05,-4e-05,-0.00015,0.00019,9e-05,-5e-05,-0.0002,-0.00017,2.0
35112.0,-6e-05,-4e-05,-0.00015,0.00019,9e-05,-5e-05,-0.0002,-0.00017,2.0
35113.0,0.00016,-6e-05,-5e-05,-3e-05,0.0,4e-05,0.0004,0.00015,2.0
35114.0,0.00016,-6e-05,-5e-05,-3e-05,0.0,4e-05,0.0004,0.00015,2.0
35115.0,0.00016,-6e-05,-5e-05,-3e-05,0.0,4e-05,0.0004,0.00015,2.0
35116.0,0.00016,-6e-05,-5e-05,-3e-05,0.0,4e-05,0.0004,0.00015,2.0
35117.0,0.00016,-6e-05,-5e-05,-3e-05,0.0,4e-05,0.0004,0.00015,2.0
35118.0,0.00016,-6e-05,-5e-05,-3e-05,0.0,4e-05,0.0004,0.00015,2.0
35119.0,0.00016,-6e-05,-5e-05,-3e-05,0.0,4e-05,0.0004,0.00015,2.0
35120.0,0.00016,-6e-05,-5e-05,-3e-05,0.0,4e-05,0.0004,0.00015,2.0
35121.0,0.00016,-6e-05,-5e-05,-3e-05,0.0,4e-05,0.0004,0.00015,2.0
35122.0,0.00016,-6e-05,-5e-05,-3e-05,0.0,4e-05,0.0004,0.00015,2.0
35123.0,0.00016,-6e-05,-5e-05,-3e-05,0.0,4e-05,0.0004,0.00015,2.0
35124.0,0.00016,-6e-05,-5e-05,-3e-05,0.0,4e-05,0.0004,0.00015,2.0
35125.0,0.00016,-6e-05,-5e-05,-3e-05,0.0,4e-05,0.0004,0.00015,2.0
35126.0,0.00016,-6e-05,-5e-05,-3e-05,0.0,4e-05,0.0004,0.00015,2.0
35127.0,0.00016,-6e-05,-5e-05,-3e-05,0.0,4e-05,0.0004,0.00015,2.0
35128.0,0.00016,-6e-05,-5e-05,-3e-05,0.0,4e-05,0.0004,0.00015,2.0
35129.0,0.00016,-6e-05,-5e-05,-3e-05,0.0,4e-05,0.0004,0.00015,2.0
35130.0,0.00016,-6e-05,-5e-05,-3e-05,0.0,4e-05,0.0004,0.00015,2.0
35131.0,0.00016,-6e-05,-5e-05,-3e-05,0.0,4e-05,0.0004,0.00015,2.0
35132.0,0.00016,-6e-05,-5e-05,-3e-05,0.0,4e-05,0.0004,0.00015,2.0
35133.0,7e-05,8e-05,0.00022,4e-05,7e-05,0.00026,0.0001,7e-05,2.0
35134.0,0.00018,7e-05,0.00015,0.0,3e-05,7e-05,5e-05,1e-05,2.0
35135.0,0.00018,7e-05,0.00015,0.0,3e-05,7e-05,5e-05,1e-05,2.0
35136.0,0.00018,7e-05,0.00015,0.0,3e-05,7e-05,5e-05,1e-05,2.0
35139.0,0.00018,7e-05,0.00015,0.0,3e-05,7e-05,5e-05,1e-05,2.0
35140.0,0.00018,7e-05,0.00015,0.0,3e-05,7e-05,5e-05,1e-05,2.0
35141.0,0.00018,7e-05,0.00015,0.0,3e-05,7e-05,5e-05,1e-05,2.0
35142.0,0.00018,7e-05,0.00015,0.0,3e-05,7e-05,5e-05,1e-05,2.0
35143.0,0.00018,7e-05,0.00015,0.0,3e-05,7e-05,5e-05,1e-05,2.0
35144.0,0.00018,7e-05,0.00015,0.0,3e-05,7e-05,5e-05,1e-05,2.0
35145.0,0.00018,7e-05,0.00015,0.0,3e-05,7e-05,5e-05,1e-05,2.0
35146.0,0.00018,7e-05,0.00015,0.0,3e-05,7e-05,5e-05,1e-05,2.0
35147.0,0.00018,7e-05,0.00015,0.0,3e-05,7e-05,5e-05,1e-05,2.0
35148.0,0.00018,7e-05,0.00015,0.0,3e-05,7e-05,5e-05,1e-05,2.0
35149.0,0.00018,7e-05,0.00015,0.0,3e-05,7e-05,5e-05,1e-05,2.0
35150.0,0.00018,7e-05,0.00015,0.0,3e-05,7e-05,5e-05,1e-05,2.0
35151.0,0.00018,7e-05,0.00015,0.0,3e-05,7e-05,5e-05,1e-05,2.0
35152.0,0.00018,7e-05,0.00015,0.0,3e-05,7e-05,5e-05,1e-05,2.0
35153.0,0.00018,7e-05,0.00015,0.0,3e-05,7e-05,5e-05,1e-05,2.0
35154.0,0.00018,7e-05,0.00015,0.0,3e-05,7e-05,5e-05,1e-05,2.0
35155.0,0.00018,7e-05,0.00015,0.0,3e-05,7e-05,5e-05,1e-05,2.0
35156.0,0.00018,7e-05,0.00015,0.0,3e-05,7e-05,5e-05,1e-05,2.0
35157.0,0.00018,7e-05,0.00015,0.0,3e-05,7e-05,5e-05,1e-05,2.0
35158.0,0.00018,7e-05,0.00015,0.0,3e-05,7e-05,5e-05,1e-05,2.0
35159.0,0.00018,7e-05,0.00015,0.0,3e-05,7e-05,5e-05,1e-05,2.0
35160.0,0.00018,7e-05,0.00015,0.0,3e-05,7e-05,5e-05,1e-05,2.0
35161.0,0.00018,7e-05,0.00015,0.0,3e-05,7e-05,5e-05,1e-05,2.0
35162.0,0.00018,7e-05,0.00015,0.0,3e-05,7e-05,5e-05,1e-05,2.0
35163.0,0.00018,7e-05,0.00015,0.0,3e-05,7e-05,5e-05,1e-05,2.0
35164.0,0.00018,7e-05,0.00015,0.0,3e-05,7e-05,5e-05,1e-05,2.0
35165.0,0.00018,7e-05,0.00015,0.0,3e-05,7e-05,5e-05,1e-05,2.0
35166.0,0.00018,7e-05,0.00015,0.0,3e-05,7e-05,5e-05,1e-05,2.0
35167.0,0.00018,7e-05,0.00015,0.0,3e-05,7e-05,5e-05,1e-05,2.0
35168.0,0.00018,7e-05,0.00015,0.0,3e-05,7e-05,5e-05,1e-05,2.0
35169.0,0.00018,7e-05,0.00015,0.0,3e-05,7e-05,5e-05,1e-05,2.0
35170.0,-0.00052,-0.0001,0.00013,-0.00013,-0.00012,-7e-05,-5e-05,1e-05,2.0
35171.0,-0.00052,-0.0001,0.00013,-0.00013,-0.00012,-7e-05,-5e-05,1e-05,2.0
35172.0,4e-05,5e-05,0.00012,4e-05,0.0,-3e-05,6e-05,-5e-05,2.0
35173.0,4e-05,5e-05,0.00012,4e-05,0.0,-3e-05,6e-05,-5e-05,2.0
35174.0,4e-05,5e-05,0.00012,4e-05,0.0,-3e-05,6e-05,-5e-05,2.0
35175.0,0.00022,0.0,-8e-05,-0.00024,-0.00012,-8e-05,0.00011,6e-05,2.0
35176.0,0.00022,0.0,-8e-05,-0.00024,-0.00012,-8e-05,0.00011,6e-05,2.0
35177.0,0.00022,0.0,-8e-05,-0.00024,-0.00012,-8e-05,0.00011,6e-05,2.0
35178.0,0.00022,0.0,-8e-05,-0.00024,-0.00012,-8e-05,0.00011,6e-05,2.0
35179.0,0.00022,0.0,-8e-05,-0.00024,-0.00012,-8e-05,0.00011,6e-05,2.0
35180.0,0.00022,0.0,-8e-05,-0.00024,-0.00012,-8e-05,0.00011,6e-05,2.0
35181.0,0.00022,0.0,-8e-05,-0.00024,-0.00012,-8e-05,0.00011,6e-05,2.0
35182.0,0.00022,0.0,-8e-05,-0.00024,-0.00012,-8e-05,0.00011,6e-05,2.0
35184.0,0.00022,0.0,-8e-05,-0.00024,-0.00012,-8e-05,0.00011,6e-05,2.0
35185.0,0.00022,0.0,-8e-05,-0.00024,-0.00012,-8e-05,0.00011,6e-05,2.0
35187.0,-0.00018,-8e-05,6e-05,3e-05,8e-05,8e-05,-0.00032,-0.00027,2.0
35189.0,5e-05,-8e-05,-0.00026,-7e-05,-0.00011,6e-05,0.00013,0.00011,2.0
35190.0,5e-05,-8e-05,-0.00026,-7e-05,-0.00011,6e-05,0.00013,0.00011,2.0
35191.0,-0.00026,-8e-05,-7e-05,8e-05,0.0,-0.00019,-0.00051,-0.00027,2.0
35192.0,-0.00012,6e-05,0.00019,-1e-05,-1e-05,0.00013,0.00032,3e-05,2.0
35193.0,-0.00012,6e-05,0.00019,-1e-05,-1e-05,0.00013,0.00032,3e-05,2.0
35194.0,-0.00012,6e-05,0.00019,-1e-05,-1e-05,0.00013,0.00032,3e-05,2.0
35195.0,-0.00012,6e-05,0.00019,-1e-05,-1e-05,0.00013,0.00032,3e-05,2.0
35196.0,-0.00012,6e-05,0.00019,-1e-05,-1e-05,0.00013,0.00032,3e-05,2.0
35197.0,-0.00012,6e-05,0.00019,-1e-05,-1e-05,0.00013,0.00032,3e-05,2.0
35198.0,-0.00012,6e-05,0.00019,-1e-05,-1e-05,0.00013,0.00032,3e-05,2.0
35199.0,-0.00012,6e-05,0.00019,-1e-05,-1e-05,0.00013,0.00032,3e-05,2.0
35200.0,-0.00012,6e-05,0.00019,-1e-05,-1e-05,0.00013,0.00032,3e-05,2.0
35201.0,-0.00012,6e-05,0.00019,-1e-05,-1e-05,0.00013,0.00032,3e-05,2.0
35202.0,-0.00012,6e-05,0.00019,-1e-05,-1e-05,0.00013,0.00032,3e-05,2.0
35203.0,-0.00012,6e-05,0.00019,-1e-05,-1e-05,0.00013,0.00032,3e-05,2.0
35204.0,-0.00012,6e-05,0.00019,-1e-05,-1e-05,0.00013,0.00032,3e-05,2.0
35205.0,-0.00012,6e-05,0.00019,-1e-05,-1e-05,0.00013,0.00032,3e-05,2.0
35206.0,0.00027,0.00014,8e-05,0.0,-3e-05,-0.00016,-0.00037,-4e-05,2.0
35207.0,0.00027,0.00014,8e-05,0.0,-3e-05,-0.00016,-0.00037,-4e-05,2.0
35208.0,-0.00025,-6e-05,-0.00022,-0.00018,-3e-05,-7e-05,-0.00011,-0.00017,2.0
35209.0,-0.00025,-6e-05,-0.00022,-0.00018,-3e-05,-7e-05,-0.00011,-0.00017,2.0
35210.0,-0.00025,-6e-05,-0.00022,-0.00018,-3e-05,-7e-05,-0.00011,-0.00017,2.0
35211.0,-0.00025,-6e-05,-0.00022,-0.00018,-3e-05,-7e-05,-0.00011,-0.00017,2.0
35212.0,-0.00025,-6e-05,-0.00022,-0.00018,-3e-05,-7e-05,-0.00011,-0.00017,2.0
35213.0,-0.00025,-6e-05,-0.00022,-0.00018,-3e-05,-7e-05,-0.00011,-0.00017,2.0
35214.0,-0.00025,-6e-05,-0.00022,-0.00018,-3e-05,-7e-05,-0.00011,-0.00017,2.0
35215.0,-0.00025,-6e-05,-0.00022,-0.00018,-3e-05,-7e-05,-0.00011,-0.00017,2.0
35216.0,-0.00025,-6e-05,-0.00022,-0.00018,-3e-05,-7e-05,-0.00011,-0.00017,2.0
35217.0,-0.00025,-6e-05,-0.00022,-0.00018,-3e-05,-7e-05,-0.00011,-0.00017,2.0
35218.0,-0.00025,-6e-05,-0.00022,-0.00018,-3e-05,-7e-05,-0.00011,-0.00017,2.0
35219.0,-0.00025,-6e-05,-0.00022,-0.00018,-3e-05,-7e-05,-0.00011,-0.00017,2.0
35220.0,-0.00025,-6e-05,-0.00022,-0.00018,-3e-05,-7e-05,-0.00011,-0.00017,2.0
35221.0,-0.00025,-6e-05,-0.00022,-0.00018,-3e-05,-7e-05,-0.00011,-0.00017,2.0
35222.0,-0.00025,-6e-05,-0.00022,-0.00018,-3e-05,-7e-05,-0.00011,-0.00017,2.0
35223.0,9e-05,1e-05,-5e-05,0.0,-0.0001,-0.00019,-0.00012,-8e-05,2.0
35224.0,-9e-05,-0.00011,1e-05,-9e-05,-0.00014,-0.00034,-0.00025,1e-05,2.0
35225.0,-9e-05,-0.00011,1e-05,-9e-05,-0.00014,-0.00034,-0.00025,1e-05,2.0
35226.0,-9e-05,-0.00011,1e-05,-9e-05,-0.00014,-0.00034,-0.00025,1e-05,2.0
35227.0,-9e-05,-0.00011,1e-05,-9e-05,-0.00014,-0.00034,-0.00025,1e-05,2.0
35228.0,-9e-05,-0.00011,1e-05,-9e-05,-0.00014,-0.00034,-0.00025,1e-05,2.0
35229.0,-9e-05,-0.00011,1e-05,-9e-05,-0.00014,-0.00034,-0.00025,1e-05,2.0
35230.0,-9e-05,-0.00011,1e-05,-9e-05,-0.00014,-0.00034,-0.00025,1e-05,2.0
35231.0,-9e-05,-0.00011,1e-05,-9e-05,-0.00014,-0.00034,-0.00025,1e-05,2.0
35232.0,-9e-05,-0.00011,1e-05,-9e-05,-0.00014,-0.00034,-0.00025,1e-05,2.0
35233.0,-9e-05,-0.00011,1e-05,-9e-05,-0.00014,-0.00034,-0.00025,1e-05,2.0
35234.0,-9e-05,-0.00011,1e-05,-9e-05,-0.00014,-0.00034,-0.00025,1e-05,2.0
35235.0,-9e-05,-0.00011,1e-05,-9e-05,-0.00014,-0.00034,-0.00025,1e-05,2.0
35236.0,-5e-05,4e-05,0.00012,0.0003,9e-05,0.0001,0.00014,6e-05,2.0
35238.0,-5e-05,4e-05,0.00012,0.0003,9e-05,0.0001,0.00014,6e-05,2.0
35239.0,-5e-05,4e-05,0.00012,0.0003,9e-05,0.0001,0.00014,6e-05,2.0
35240.0,-5e-05,4e-05,0.00012,0.0003,9e-05,0.0001,0.00014,6e-05,2.0
35241.0,-5e-05,4e-05,0.00012,0.0003,9e-05,0.0001,0.00014,6e-05,2.0
35242.0,-5e-05,4e-05,0.00012,0.0003,9e-05,0.0001,0.00014,6e-05,2.0
35243.0,-5e-05,4e-05,0.00012,0.0003,9e-05,0.0001,0.00014,6e-05,2.0
35244.0,-5e-05,4e-05,0.00012,0.0003,9e-05,0.0001,0.00014,6e-05,2.0
35245.0,-5e-05,4e-05,0.00012,0.0003,9e-05,0.0001,0.00014,6e-05,2.0
35246.0,-5e-05,4e-05,0.00012,0.0003,9e-05,0.0001,0.00014,6e-05,2.0
35247.0,-5e-05,4e-05,0.00012,0.0003,9e-05,0.0001,0.00014,6e-05,2.0
35248.0,-5e-05,4e-05,0.00012,0.0003,9e-05,0.0001,0.00014,6e-05,2.0
35249.0,-5e-05,4e-05,0.00012,0.0003,9e-05,0.0001,0.00014,6e-05,2.0
35250.0,-5e-05,4e-05,0.00012,0.0003,9e-05,0.0001,0.00014,6e-05,2.0
35251.0,-5e-05,4e-05,0.00012,0.0003,9e-05,0.0001,0.00014,6e-05,2.0
35252.0,-5e-05,4e-05,0.00012,0.0003,9e-05,0.0001,0.00014,6e-05,2.0
35253.0,-5e-05,4e-05,0.00012,0.0003,9e-05,0.0001,0.00014,6e-05,2.0
35254.0,-5e-05,4e-05,0.00012,0.0003,9e-05,0.0001,0.00014,6e-05,2.0
35255.0,-5e-05,4e-05,0.00012,0.0003,9e-05,0.0001,0.00014,6e-05,2.0
35256.0,-5e-05,4e-05,0.00012,0.0003,9e-05,0.0001,0.00014,6e-05,2.0
35257.0,-5e-05,4e-05,0.00012,0.0003,9e-05,0.0001,0.00014,6e-05,2.0
35258.0,-5e-05,4e-05,0.00012,0.0003,9e-05,0.0001,0.00014,6e-05,2.0
35259.0,-2e-05,-5e-05,-1e-05,6e-05,-0.00015,-0.00015,1e-05,-0.00011,2.0
35260.0,-0.00025,-0.00017,-7e-05,-8e-05,-7e-05,-0.00011,7e-05,-0.00021,2.0
35261.0,-0.00025,-0.00017,-7e-05,-8e-05,-7e-05,-0.00011,7e-05,-0.00021,2.0
35262.0,-0.00025,-9e-05,-1e-05,-3e-05,-0.00015,-0.00012,4e-05,-7e-05,2.0
35263.0,-0.00025,-9e-05,-1e-05,-3e-05,-0.00015,-0.00012,4e-05,-7e-05,2.0
35264.0,-0.00025,-9e-05,-1e-05,-3e-05,-0.00015,-0.00012,4e-05,-7e-05,2.0
35265.0,-0.00025,-9e-05,-1e-05,-3e-05,-0.00015,-0.00012,4e-05,-7e-05,2.0
35266.0,-0.00025,-9e-05,-1e-05,-3e-05,-0.00015,-0.00012,4e-05,-7e-05,2.0
35267.0,-0.00025,-9e-05,-1e-05,-3e-05,-0.00015,-0.00012,4e-05,-7e-05,2.0
35268.0,-0.00025,-9e-05,-1e-05,-3e-05,-0.00015,-0.00012,4e-05,-7e-05,2.0
35269.0,-0.00025,-9e-05,-1e-05,-3e-05,-0.00015,-0.00012,4e-05,-7e-05,2.0
35270.0,-0.00025,-9e-05,-1e-05,-3e-05,-0.00015,-0.00012,4e-05,-7e-05,2.0
35271.0,-0.00025,-9e-05,-1e-05,-3e-05,-0.00015,-0.00012,4e-05,-7e-05,2.0
35272.0,-0.00025,-9e-05,-1e-05,-3e-05,-0.00015,-0.00012,4e-05,-7e-05,2.0
35274.0,-0.00025,-9e-05,-1e-05,-3e-05,-0.00015,-0.00012,4e-05,-7e-05,2.0
35275.0,-0.00025,-9e-05,-1e-05,-3e-05,-0.00015,-0.00012,4e-05,-7e-05,2.0
35276.0,-0.00025,-9e-05,-1e-05,-3e-05,-0.00015,-0.00012,4e-05,-7e-05,2.0
35277.0,-0.00025,-9e-05,-1e-05,-3e-05,-0.00015,-0.00012,4e-05,-7e-05,2.0
35278.0,-0.00025,-9e-05,-1e-05,-3e-05,-0.00015,-0.00012,4e-05,-7e-05,2.0
35279.0,-0.00025,-9e-05,-1e-05,-3e-05,-0.00015,-0.00012,4e-05,-7e-05,2.0
35280.0,-0.00025,-9e-05,-1e-05,-3e-05,-0.00015,-0.00012,4e-05,-7e-05,2.0
35281.0,7e-05,-5e-05,-4e-05,-0.00015,-0.00014,-0.0002,-0.00023,-0.00015,2.0
35282.0,-0.00012,6e-05,4e-05,5e-05,5e-05,0.00023,0.00036,-3e-05,2.0
35283.0,-0.00017,8e-05,0.00015,2e-05,-2e-05,-4e-05,3e-05,-0.00014,2.0
35284.0,-0.00017,8e-05,0.00015,2e-05,-2e-05,-4e-05,3e-05,-0.00014,2.0
35285.0,-0.00017,8e-05,0.00015,2e-05,-2e-05,-4e-05,3e-05,-0.00014,2.0
35287.0,-0.00017,8e-05,0.00015,2e-05,-2e-05,-4e-05,3e-05,-0.00014,2.0
35289.0,-0.00017,8e-05,0.00015,2e-05,-2e-05,-4e-05,3e-05,-0.00014,2.0
35290.0,-0.00017,8e-05,0.00015,2e-05,-2e-05,-4e-05,3e-05,-0.00014,2.0
35291.0,-0.00017,8e-05,0.00015,2e-05,-2e-05,-4e-05,3e-05,-0.00014,2.0
35292.0,-0.00017,8e-05,0.00015,2e-05,-2e-05,-4e-05,3e-05,-0.00014,2.0
35293.0,-0.00017,8e-05,0.00015,2e-05,-2e-05,-4e-05,3e-05,-0.00014,2.0
35294.0,-0.00017,8e-05,0.00015,2e-05,-2e-05,-4e-05,3e-05,-0.00014,2.0
35295.0,-0.00017,8e-05,0.00015,2e-05,-2e-05,-4e-05,3e-05,-0.00014,2.0
35296.0,-3e-05,0.0001,5e-05,8e-05,0.0001,-5e-05,0.00027,-4e-05,2.0
35297.0,-3e-05,0.0001,5e-05,8e-05,0.0001,-5e-05,0.00027,-4e-05,2.0
35298.0,-3e-05,0.0001,5e-05,8e-05,0.0001,-5e-05,0.00027,-4e-05,2.0
35299.0,-3e-05,0.0001,5e-05,8e-05,0.0001,-5e-05,0.00027,-4e-05,2.0
35300.0,-3e-05,0.0001,5e-05,8e-05,0.0001,-5e-05,0.00027,-4e-05,2.0
35301.0,-3e-05,0.0001,5e-05,8e-05,0.0001,-5e-05,0.00027,-4e-05,2.0
35302.0,-3e-05,0.0001,5e-05,8e-05,0.0001,-5e-05,0.00027,-4e-05,2.0
35303.0,-3e-05,0.0001,5e-05,8e-05,0.0001,-5e-05,0.00027,-4e-05,2.0
35304.0,-3e-05,0.0001,5e-05,8e-05,0.0001,-5e-05,0.00027,-4e-05,2.0
35305.0,-3e-05,0.0001,5e-05,8e-05,0.0001,-5e-05,0.00027,-4e-05,2.0
35306.0,-3e-05,0.0001,5e-05,8e-05,0.0001,-5e-05,0.00027,-4e-05,2.0
35307.0,-3e-05,0.0001,5e-05,8e-05,0.0001,-5e-05,0.00027,-4e-05,2.0
35308.0,-3e-05,0.0001,5e-05,8e-05,0.0001,-5e-05,0.00027,-4e-05,2.0
35309.0,-3e-05,0.0001,5e-05,8e-05,0.0001,-5e-05,0.00027,-4e-05,2.0
35310.0,-3e-05,0.0001,5e-05,8e-05,0.0001,-5e-05,0.00027,-4e-05,2.0
35311.0,2e-05,6e-05,0.00015,0.00015,0.00015,0.00026,0.00028,-1e-05,2.0
35312.0,2e-05,6e-05,0.00015,0.00015,0.00015,0.00026,0.00028,-1e-05,2.0
35313.0,2e-05,6e-05,0.00015,0.00015,0.00015,0.00026,0.00028,-1e-05,2.0
35314.0,2e-05,6e-05,0.00015,0.00015,0.00015,0.00026,0.00028,-1e-05,2.0
35315.0,2e-05,6e-05,0.00015,0.00015,0.00015,0.00026,0.00028,-1e-05,2.0
35316.0,2e-05,6e-05,0.00015,0.00015,0.00015,0.00026,0.00028,-1e-05,2.0
35317.0,2e-05,6e-05,0.00015,0.00015,0.00015,0.00026,0.00028,-1e-05,2.0
35318.0,2e-05,6e-05,0.00015,0.00015,0.00015,0.00026,0.00028,-1e-05,2.0
35319.0,2e-05,6e-05,0.00015,0.00015,0.00015,0.00026,0.00028,-1e-05,2.0
35320.0,1e-05,-0.00013,-0.00039,-0.0001,0.00016,-2e-05,-2e-05,6e-05,2.0
35321.0,-0.00019,0.0,9e-05,0.00021,3e-05,-0.00014,0.00012,-1e-05,2.0
35322.0,-0.00019,0.0,9e-05,0.00021,3e-05,-0.00014,0.00012,-1e-05,2.0
35323.0,-0.00019,0.0,9e-05,0.00021,3e-05,-0.00014,0.00012,-1e-05,2.0
35324.0,-0.00019,0.0,9e-05,0.00021,3e-05,-0.00014,0.00012,-1e-05,2.0
35325.0,-0.00019,0.0,9e-05,0.00021,3e-05,-0.00014,0.00012,-1e-05,2.0
35326.0,-0.00019,0.0,9e-05,0.00021,3e-05,-0.00014,0.00012,-1e-05,2.0
35327.0,-0.00019,0.0,9e-05,0.00021,3e-05,-0.00014,0.00012,-1e-05,2.0
35328.0,-0.00019,0.0,9e-05,0.00021,3e-05,-0.00014,0.00012,-1e-05,2.0
35329.0,-0.00019,0.0,9e-05,0.00021,3e-05,-0.00014,0.00012,-1e-05,2.0
35330.0,-0.00019,0.0,9e-05,0.00021,3e-05,-0.00014,0.00012,-1e-05,2.0
35331.0,-0.00019,0.0,9e-05,0.00021,3e-05,-0.00014,0.00012,-1e-05,2.0
35332.0,-0.00019,0.0,9e-05,0.00021,3e-05,-0.00014,0.00012,-1e-05,2.0
35333.0,-0.00019,0.0,9e-05,0.00021,3e-05,-0.00014,0.00012,-1e-05,2.0
35334.0,-0.00019,0.0,9e-05,0.00021,3e-05,-0.00014,0.00012,-1e-05,2.0
35335.0,-0.00019,0.0,9e-05,0.00021,3e-05,-0.00014,0.00012,-1e-05,2.0
35337.0,-0.00019,0.0,9e-05,0.00021,3e-05,-0.00014,0.00012,-1e-05,2.0
35339.0,-0.00019,0.0,9e-05,0.00021,3e-05,-0.00014,0.00012,-1e-05,2.0
35340.0,-0.00019,0.0,9e-05,0.00021,3e-05,-0.00014,0.00012,-1e-05,2.0
35341.0,-0.00019,0.0,9e-05,0.00021,3e-05,-0.00014,0.00012,-1e-05,2.0
35342.0,0.00011,4e-05,0.00021,0.00013,-0.00012,-4e-05,-4e-05,7e-05,2.0
35343.0,0.00011,4e-05,0.00021,0.00013,-0.00012,-4e-05,-4e-05,7e-05,2.0
35344.0,0.00026,0.0001,-8e-05,-3e-05,-1e-05,1e-05,0.00018,0.00029,2.0
35345.0,0.00026,0.0001,-8e-05,-3e-05,-1e-05,1e-05,0.00018,0.00029,2.0
35346.0,0.00026,0.0001,-8e-05,-3e-05,-1e-05,1e-05,0.00018,0.00029,2.0
35347.0,0.00026,0.0001,-8e-05,-3e-05,-1e-05,1e-05,0.00018,0.00029,2.0
35348.0,0.00026,0.0001,-8e-05,-3e-05,-1e-05,1e-05,0.00018,0.00029,2.0
35349.0,0.00026,0.0001,-8e-05,-3e-05,-1e-05,1e-05,0.00018,0.00029,2.0
35350.0,0.00026,0.0001,-8e-05,-3e-05,-1e-05,1e-05,0.00018,0.00029,2.0
35351.0,0.00026,0.0001,-8e-05,-3e-05,-1e-05,1e-05,0.00018,0.00029,2.0
35352.0,0.00026,0.0001,-8e-05,-3e-05,-1e-05,1e-05,0.00018,0.00029,2.0
35353.0,0.00026,0.0001,-8e-05,-3e-05,-1e-05,1e-05,0.00018,0.00029,2.0
35354.0,0.00026,0.0001,-8e-05,-3e-05,-1e-05,1e-05,0.00018,0.00029,2.0
35355.0,0.00026,0.0001,-8e-05,-3e-05,-1e-05,1e-05,0.00018,0.00029,2.0
35356.0,0.00015,0.00015,0.00014,-2e-05,-1e-05,7e-05,-0.00024,0.0,2.0
35357.0,0.00015,0.00015,0.00014,-2e-05,-1e-05,7e-05,-0.00024,0.0,2.0
35358.0,0.00015,0.00015,0.00014,-2e-05,-1e-05,7e-05,-0.00024,0.0,2.0
35359.0,0.00015,0.00015,0.00014,-2e-05,-1e-05,7e-05,-0.00024,0.0,2.0
35360.0,0.00015,0.00015,0.00014,-2e-05,-1e-05,7e-05,-0.00024,0.0,2.0
35361.0,0.00015,0.00015,0.00014,-2e-05,-1e-05,7e-05,-0.00024,0.0,2.0
35362.0,-0.0001,-0.00022,-0.00027,-0.00012,-0.00016,-0.00014,-0.00018,-0.00011,2.0
35363.0,-0.0001,-0.00022,-0.00027,-0.00012,-0.00016,-0.00014,-0.00018,-0.00011,2.0
35364.0,-0.0001,-0.00022,-0.00027,-0.00012,-0.00016,-0.00014,-0.00018,-0.00011,2.0
35365.0,-0.0001,-0.00022,-0.00027,-0.00012,-0.00016,-0.00014,-0.00018,-0.00011,2.0
35366.0,-0.0001,-0.00022,-0.00027,-0.00012,-0.00016,-0.00014,-0.00018,-0.00011,2.0
35367.0,-0.0001,-0.00022,-0.00027,-0.00012,-0.00016,-0.00014,-0.00018,-0.00011,2.0
35368.0,-0.0001,-0.00022,-0.00027,-0.00012,-0.00016,-0.00014,-0.00018,-0.00011,2.0
35369.0,-0.0001,-0.00022,-0.00027,-0.00012,-0.00016,-0.00014,-0.00018,-0.00011,2.0
35370.0,-0.0001,-0.00022,-0.00027,-0.00012,-0.00016,-0.00014,-0.00018,-0.00011,2.0
35371.0,-0.0001,-0.00022,-0.00027,-0.00012,-0.00016,-0.00014,-0.00018,-0.00011,2.0
35372.0,-0.0001,-0.00022,-0.00027,-0.00012,-0.00016,-0.00014,-0.00018,-0.00011,2.0
35373.0,-0.0001,-0.00022,-0.00027,-0.00012,-0.00016,-0.00014,-0.00018,-0.00011,2.0
35374.0,-0.0001,-0.00022,-0.00027,-0.00012,-0.00016,-0.00014,-0.00018,-0.00011,2.0
35375.0,-0.0001,-0.00022,-0.00027,-0.00012,-0.00016,-0.00014,-0.00018,-0.00011,2.0
35376.0,-0.0001,-0.00022,-0.00027,-0.00012,-0.00016,-0.00014,-0.00018,-0.00011,2.0
35377.0,-0.0001,-0.00022,-0.00027,-0.00012,-0.00016,-0.00014,-0.00018,-0.00011,2.0
35378.0,-0.0001,-0.00022,-0.00027,-0.00012,-0.00016,-0.00014,-0.00018,-0.00011,2.0
35379.0,-0.0001,-0.00022,-0.00027,-0.00012,-0.00016,-0.00014,-0.00018,-0.00011,2.0
35380.0,-0.0001,-0.00022,-0.00027,-0.00012,-0.00016,-0.00014,-0.00018,-0.00011,2.0
35381.0,-0.0001,-0.00022,-0.00027,-0.00012,-0.00016,-0.00014,-0.00018,-0.00011,2.0
35382.0,-0.0001,-0.00022,-0.00027,-0.00012,-0.00016,-0.00014,-0.00018,-0.00011,2.0
35383.0,-0.0001,-0.00022,-0.00027,-0.00012,-0.00016,-0.00014,-0.00018,-0.00011,2.0
35384.0,-0.0001,-0.00022,-0.00027,-0.00012,-0.00016,-0.00014,-0.00018,-0.00011,2.0
35385.0,-0.0001,-0.00022,-0.00027,-0.00012,-0.00016,-0.00014,-0.00018,-0.00011,2.0
35387.0,0.0002,-6e-05,-0.00013,-0.0001,-3e-05,2e-05,0.0,7e-05,2.0
35390.0,-7e-05,5e-05,0.0001,-0.00021,-0.00016,-0.00011,-8e-05,-3e-05,2.0
35391.0,-7e-05,5e-05,0.0001,-0.00021,-0.00016,-0.00011,-8e-05,-3e-05,2.0
35392.0,-7e-05,5e-05,0.0001,-0.00021,-0.00016,-0.00011,-8e-05,-3e-05,2.0
35393.0,-7e-05,5e-05,0.0001,-0.00021,-0.00016,-0.00011,-8e-05,-3e-05,2.0
35394.0,-7e-05,5e-05,0.0001,-0.00021,-0.00016,-0.00011,-8e-05,-3e-05,2.0
35395.0,-7e-05,5e-05,0.0001,-0.00021,-0.00016,-0.00011,-8e-05,-3e-05,2.0
35396.0,-7e-05,5e-05,0.0001,-0.00021,-0.00016,-0.00011,-8e-05,-3e-05,2.0
35397.0,-7e-05,5e-05,0.0001,-0.00021,-0.00016,-0.00011,-8e-05,-3e-05,2.0
35398.0,-7e-05,5e-05,0.0001,-0.00021,-0.00016,-0.00011,-8e-05,-3e-05,2.0
35399.0,-7e-05,5e-05,0.0001,-0.00021,-0.00016,-0.00011,-8e-05,-3e-05,2.0
35400.0,-7e-05,5e-05,0.0001,-0.00021,-0.00016,-0.00011,-8e-05,-3e-05,2.0
35401.0,6e-05,2e-05,-3e-05,-0.00039,-6e-05,0.0,-0.00022,-7e-05,2.0
35402.0,6e-05,2e-05,-3e-05,-0.00039,-6e-05,0.0,-0.00022,-7e-05,2.0
35403.0,6e-05,2e-05,-3e-05,-0.00039,-6e-05,0.0,-0.00022,-7e-05,2.0
35404.0,6e-05,2e-05,-3e-05,-0.00039,-6e-05,0.0,-0.00022,-7e-05,2.0
35405.0,6e-05,2e-05,-3e-05,-0.00039,-6e-05,0.0,-0.00022,-7e-05,2.0
35406.0,6e-05,2e-05,-3e-05,-0.00039,-6e-05,0.0,-0.00022,-7e-05,2.0
35407.0,0.00011,-4e-05,-0.0001,2e-05,-5e-05,-5e-05,2e-05,8e-05,2.0
35408.0,1e-05,-1e-05,-3e-05,1e-05,7e-05,-2e-05,-7e-05,0.0,2.0
35409.0,1e-05,-1e-05,-3e-05,1e-05,7e-05,-2e-05,-7e-05,0.0,2.0
35410.0,1e-05,-1e-05,-3e-05,1e-05,7e-05,-2e-05,-7e-05,0.0,2.0
35411.0,1e-05,-1e-05,-3e-05,1e-05,7e-05,-2e-05,-7e-05,0.0,2.0
35412.0,1e-05,-1e-05,-3e-05,1e-05,7e-05,-2e-05,-7e-05,0.0,2.0
35414.0,1e-05,-1e-05,-3e-05,1e-05,7e-05,-2e-05,-7e-05,0.0,2.0
35415.0,1e-05,-1e-05,-3e-05,1e-05,7e-05,-2e-05,-7e-05,0.0,2.0
35416.0,1e-05,0.00011,0.00024,0.00012,0.0,9e-05,5e-05,8e-05,2.0
35417.0,1e-05,0.00011,0.00024,0.00012,0.0,9e-05,5e-05,8e-05,2.0
35418.0,1e-05,0.00011,0.00024,0.00012,0.0,9e-05,5e-05,8e-05,2.0
35419.0,1e-05,0.00011,0.00024,0.00012,0.0,9e-05,5e-05,8e-05,2.0
35420.0,1e-05,0.00011,0.00024,0.00012,0.0,9e-05,5e-05,8e-05,2.0
35421.0,1e-05,0.00011,0.00024,0.00012,0.0,9e-05,5e-05,8e-05,2.0
35422.0,1e-05,0.00011,0.00024,0.00012,0.0,9e-05,5e-05,8e-05,2.0
35423.0,1e-05,0.00011,0.00024,0.00012,0.0,9e-05,5e-05,8e-05,2.0
35424.0,1e-05,0.00011,0.00024,0.00012,0.0,9e-05,5e-05,8e-05,2.0
35425.0,1e-05,0.00011,0.00024,0.00012,0.0,9e-05,5e-05,8e-05,2.0
35426.0,1e-05,0.00011,0.00024,0.00012,0.0,9e-05,5e-05,8e-05,2.0
35427.0,1e-05,0.00011,0.00024,0.00012,0.0,9e-05,5e-05,8e-05,2.0
35428.0,1e-05,0.00011,0.00024,0.00012,0.0,9e-05,5e-05,8e-05,2.0
35429.0,1e-05,0.00011,0.00024,0.00012,0.0,9e-05,5e-05,8e-05,2.0
35430.0,1e-05,0.00011,0.00024,0.00012,0.0,9e-05,5e-05,8e-05,2.0
35431.0,1e-05,0.00011,0.00024,0.00012,0.0,9e-05,5e-05,8e-05,2.0
35432.0,1e-05,0.00011,0.00024,0.00012,0.0,9e-05,5e-05,8e-05,2.0
35433.0,1e-05,0.00011,0.00024,0.00012,0.0,9e-05,5e-05,8e-05,2.0
35434.0,1e-05,0.00011,0.00024,0.00012,0.0,9e-05,5e-05,8e-05,2.0
35435.0,1e-05,0.00011,0.00024,0.00012,0.0,9e-05,5e-05,8e-05,2.0
35437.0,1e-05,0.00011,0.00024,0.00012,0.0,9e-05,5e-05,8e-05,2.0
35439.0,1e-05,0.00011,0.00024,0.00012,0.0,9e-05,5e-05,8e-05,2.0
35440.0,-9e-05,-7e-05,-0.00017,-2e-05,2e-05,-6e-05,-2e-05,-2e-05,2.0
35441.0,-9e-05,-7e-05,-0.00017,-2e-05,2e-05,-6e-05,-2e-05,-2e-05,2.0
35442.0,-0.00026,-0.00016,-0.00025,0.00018,6e-05,0.00017,0.00024,-0.00013,2.0
35443.0,-0.00026,-0.00016,-0.00025,0.00018,6e-05,0.00017,0.00024,-0.00013,2.0
35444.0,-0.00026,-0.00016,-0.00025,0.00018,6e-05,0.00017,0.00024,-0.00013,2.0
35445.0,-0.00026,-0.00016,-0.00025,0.00018,6e-05,0.00017,0.00024,-0.00013,2.0
35446.0,-0.00026,-0.00016,-0.00025,0.00018,6e-05,0.00017,0.00024,-0.00013,2.0
35447.0,-0.00026,-0.00016,-0.00025,0.00018,6e-05,0.00017,0.00024,-0.00013,2.0
35448.0,-0.00026,-0.00016,-0.00025,0.00018,6e-05,0.00017,0.00024,-0.00013,2.0
35449.0,-0.00026,-0.00016,-0.00025,0.00018,6e-05,0.00017,0.00024,-0.00013,2.0
35450.0,-0.00026,-0.00016,-0.00025,0.00018,6e-05,0.00017,0.00024,-0.00013,2.0
35451.0,-0.00026,-0.00016,-0.00025,0.00018,6e-05,0.00017,0.00024,-0.00013,2.0
35452.0,-0.00026,-0.00016,-0.00025,0.00018,6e-05,0.00017,0.00024,-0.00013,2.0
35453.0,-0.00026,-0.00016,-0.00025,0.00018,6e-05,0.00017,0.00024,-0.00013,2.0
35454.0,-0.00026,-0.00016,-0.00025,0.00018,6e-05,0.00017,0.00024,-0.00013,2.0
35455.0,-0.00026,-0.00016,-0.00025,0.00018,6e-05,0.00017,0.00024,-0.00013,2.0
35456.0,-0.00026,-0.00016,-0.00025,0.00018,6e-05,0.00017,0.00024,-0.00013,2.0
35457.0,-0.00026,-0.00016,-0.00025,0.00018,6e-05,0.00017,0.00024,-0.00013,2.0
35458.0,-0.00026,-0.00016,-0.00025,0.00018,6e-05,0.00017,0.00024,-0.00013,2.0
35459.0,-0.00026,-0.00016,-0.00025,0.00018,6e-05,0.00017,0.00024,-0.00013,2.0
35460.0,-0.00026,-0.00016,-0.00025,0.00018,6e-05,0.00017,0.00024,-0.00013,2.0
35461.0,-0.00026,-0.00016,-0.00025,0.00018,6e-05,0.00017,0.00024,-0.00013,2.0
35462.0,-0.00015,7e-05,-3e-05,3e-05,0.0001,0.00012,0.00022,0.00011,2.0
35463.0,6e-05,0.00013,0.00028,-7e-05,-2e-05,-6e-05,-0.00018,-8e-05,2.0
35464.0,6e-05,0.00013,0.00028,-7e-05,-2e-05,-6e-05,-0.00018,-8e-05,2.0
35465.0,6e-05,0.00013,0.00028,-7e-05,-2e-05,-6e-05,-0.00018,-8e-05,2.0
35466.0,6e-05,0.00013,0.00028,-7e-05,-2e-05,-6e-05,-0.00018,-8e-05,2.0
35467.0,6e-05,0.00013,0.00028,-7e-05,-2e-05,-6e-05,-0.00018,-8e-05,2.0
35468.0,6e-05,0.00013,0.00028,-7e-05,-2e-05,-6e-05,-0.00018,-8e-05,2.0
35469.0,6e-05,0.00013,0.00028,-7e-05,-2e-05,-6e-05,-0.00018,-8e-05,2.0
35470.0,6e-05,0.00013,0.00028,-7e-05,-2e-05,-6e-05,-0.00018,-8e-05,2.0
35471.0,6e-05,0.00013,0.00028,-7e-05,-2e-05,-6e-05,-0.00018,-8e-05,2.0
35472.0,6e-05,0.00013,0.00028,-7e-05,-2e-05,-6e-05,-0.00018,-8e-05,2.0
35473.0,6e-05,0.00013,0.00028,-7e-05,-2e-05,-6e-05,-0.00018,-8e-05,2.0
35474.0,6e-05,0.00013,0.00028,-7e-05,-2e-05,-6e-05,-0.00018,-8e-05,2.0
35475.0,6e-05,0.00013,0.00028,-7e-05,-2e-05,-6e-05,-0.00018,-8e-05,2.0
35476.0,6e-05,0.00013,0.00028,-7e-05,-2e-05,-6e-05,-0.00018,-8e-05,2.0
35477.0,6e-05,0.00013,0.00028,-7e-05,-2e-05,-6e-05,-0.00018,-8e-05,2.0
35478.0,6e-05,0.00013,0.00028,-7e-05,-2e-05,-6e-05,-0.00018,-8e-05,2.0
35479.0,6e-05,0.00013,0.00028,-7e-05,-2e-05,-6e-05,-0.00018,-8e-05,2.0
35480.0,6e-05,0.00013,0.00028,-7e-05,-2e-05,-6e-05,-0.00018,-8e-05,2.0
35481.0,6e-05,0.00013,0.00028,-7e-05,-2e-05,-6e-05,-0.00018,-8e-05,2.0
35482.0,6e-05,0.00013,0.00028,-7e-05,-2e-05,-6e-05,-0.00018,-8e-05,2.0
35483.0,6e-05,0.00013,0.00028,-7e-05,-2e-05,-6e-05,-0.00018,-8e-05,2.0
35484.0,-0.00041,-0.00019,-5e-05,1e-05,-3e-05,0.0,-0.00012,-0.0001,2.0
35485.0,-2e-05,-0.0001,-9e-05,-6e-05,2e-05,-0.00011,0.00021,4e-05,2.0
35487.0,-2e-05,-0.0001,-9e-05,-6e-05,2e-05,-0.00011,0.00021,4e-05,2.0
35490.0,-2e-05,-0.0001,-9e-05,-6e-05,2e-05,-0.00011,0.00021,4e-05,2.0
35491.0,-2e-05,-0.0001,-9e-05,-6e-05,2e-05,-0.00011,0.00021,4e-05,2.0
35492.0,-2e-05,-0.0001,-9e-05,-6e-05,2e-05,-0.00011,0.00021,4e-05,2.0
35493.0,-2e-05,-0.0001,-9e-05,-6e-05,2e-05,-0.00011,0.00021,4e-05,2.0
35494.0,-2e-05,-0.0001,-9e-05,-6e-05,2e-05,-0.00011,0.00021,4e-05,2.0
35495.0,-2e-05,-0.0001,-9e-05,-6e-05,2e-05,-0.00011,0.00021,4e-05,2.0
35496.0,-2e-05,-0.0001,-9e-05,-6e-05,2e-05,-0.00011,0.00021,4e-05,2.0
35497.0,-2e-05,-0.0001,-9e-05,-6e-05,2e-05,-0.00011,0.00021,4e-05,2.0
35498.0,-2e-05,-0.0001,-9e-05,-6e-05,2e-05,-0.00011,0.00021,4e-05,2.0
35499.0,0.00011,8e-05,0.00026,0.00022,0.00011,-3e-05,1e-05,-3e-05,2.0
35500.0,6e-05,-7e-05,-0.0001,4e-05,-5e-05,-6e-05,-0.00011,2e-05,2.0
35501.0,-9e-05,-0.00011,-0.00031,-0.00014,4e-05,0.0001,-0.00023,-0.0001,2.0
35502.0,-9e-05,-0.00011,-0.00031,-0.00014,4e-05,0.0001,-0.00023,-0.0001,2.0
35503.0,-9e-05,-0.00011,-0.00031,-0.00014,4e-05,0.0001,-0.00023,-0.0001,2.0
35504.0,-9e-05,-0.00011,-0.00031,-0.00014,4e-05,0.0001,-0.00023,-0.0001,2.0
35505.0,-9e-05,-0.00011,-0.00031,-0.00014,4e-05,0.0001,-0.00023,-0.0001,2.0
35506.0,-9e-05,-0.00011,-0.00031,-0.00014,4e-05,0.0001,-0.00023,-0.0001,2.0
35507.0,-9e-05,-0.00011,-0.00031,-0.00014,4e-05,0.0001,-0.00023,-0.0001,2.0
35508.0,-9e-05,-0.00011,-0.00031,-0.00014,4e-05,0.0001,-0.00023,-0.0001,2.0
35509.0,-9e-05,-0.00011,-0.00031,-0.00014,4e-05,0.0001,-0.00023,-0.0001,2.0
35510.0,-9e-05,-0.00011,-0.00031,-0.00014,4e-05,0.0001,-0.00023,-0.0001,2.0
35511.0,-9e-05,-0.00011,-0.00031,-0.00014,4e-05,0.0001,-0.00023,-0.0001,2.0
35512.0,-9e-05,-0.00011,-0.00031,-0.00014,4e-05,0.0001,-0.00023,-0.0001,2.0
35513.0,-9e-05,-0.00011,-0.00031,-0.00014,4e-05,0.0001,-0.00023,-0.0001,2.0
35514.0,-9e-05,-0.00011,-0.00031,-0.00014,4e-05,0.0001,-0.00023,-0.0001,2.0
35515.0,-9e-05,-0.00011,-0.00031,-0.00014,4e-05,0.0001,-0.00023,-0.0001,2.0
35516.0,-9e-05,-0.00011,-0.00031,-0.00014,4e-05,0.0001,-0.00023,-0.0001,2.0
35517.0,-9e-05,-0.00011,-0.00031,-0.00014,4e-05,0.0001,-0.00023,-0.0001,2.0
35518.0,-9e-05,-0.00011,-0.00031,-0.00014,4e-05,0.0001,-0.00023,-0.0001,2.0
35519.0,-9e-05,-0.00011,-0.00031,-0.00014,4e-05,0.0001,-0.00023,-0.0001,2.0
35520.0,-9e-05,-0.00011,-0.00031,-0.00014,4e-05,0.0001,-0.00023,-0.0001,2.0
35521.0,-9e-05,-0.00011,-0.00031,-0.00014,4e-05,0.0001,-0.00023,-0.0001,2.0
35522.0,-9e-05,-0.00011,-0.00031,-0.00014,4e-05,0.0001,-0.00023,-0.0001,2.0
35523.0,-9e-05,-0.00011,-0.00031,-0.00014,4e-05,0.0001,-0.00023,-0.0001,2.0
35524.0,-9e-05,-0.00011,-0.00031,-0.00014,4e-05,0.0001,-0.00023,-0.0001,2.0
35525.0,-9e-05,-0.00011,-0.00031,-0.00014,4e-05,0.0001,-0.00023,-0.0001,2.0
35526.0,-9e-05,-0.00011,-0.00031,-0.00014,4e-05,0.0001,-0.00023,-0.0001,2.0
35527.0,-9e-05,-0.00011,-0.00031,-0.00014,4e-05,0.0001,-0.00023,-0.0001,2.0
35528.0,-9e-05,-0.00011,-0.00031,-0.00014,4e-05,0.0001,-0.00023,-0.0001,2.0
35529.0,-9e-05,-0.00011,-0.00031,-0.00014,4e-05,0.0001,-0.00023,-0.0001,2.0
35530.0,-9e-05,-0.00011,-0.00031,-0.00014,4e-05,0.0001,-0.00023,-0.0001,2.0
35531.0,-9e-05,-0.00011,-0.00031,-0.00014,4e-05,0.0001,-0.00023,-0.0001,2.0
35532.0,-9e-05,-0.00011,-0.00031,-0.00014,4e-05,0.0001,-0.00023,-0.0001,2.0
35533.0,-9e-05,-0.00011,-0.00031,-0.00014,4e-05,0.0001,-0.00023,-0.0001,2.0
35534.0,-9e-05,-0.00011,-0.00031,-0.00014,4e-05,0.0001,-0.00023,-0.0001,2.0
35535.0,-9e-05,-0.00011,-0.00031,-0.00014,4e-05,0.0001,-0.00023,-0.0001,2.0
35537.0,-9e-05,-0.00011,-0.00031,-0.00014,4e-05,0.0001,-0.00023,-0.0001,2.0
35540.0,0.0001,-1e-05,-2e-05,-2e-05,-5e-05,-7e-05,-1e-05,-6e-05,2.0
35541.0,0.0001,-1e-05,-2e-05,-2e-05,-5e-05,-7e-05,-1e-05,-6e-05,2.0
35542.0,0.0001,-1e-05,-2e-05,-2e-05,-5e-05,-7e-05,-1e-05,-6e-05,2.0
35543.0,0.0001,-1e-05,-2e-05,-2e-05,-5e-05,-7e-05,-1e-05,-6e-05,2.0
35544.0,0.00022,4e-05,0.0,-5e-05,-4e-05,6e-05,-0.0002,0.00011,2.0
35545.0,0.00022,4e-05,0.0,-5e-05,-4e-05,6e-05,-0.0002,0.00011,2.0
35546.0,0.00022,4e-05,0.0,-5e-05,-4e-05,6e-05,-0.0002,0.00011,2.0
35547.0,0.00022,4e-05,0.0,-5e-05,-4e-05,6e-05,-0.0002,0.00011,2.0
35549.0,0.00022,4e-05,0.0,-5e-05,-4e-05,6e-05,-0.0002,0.00011,2.0
35550.0,0.00022,4e-05,0.0,-5e-05,-4e-05,6e-05,-0.0002,0.00011,2.0
35551.0,0.00022,4e-05,0.0,-5e-05,-4e-05,6e-05,-0.0002,0.00011,2.0
35552.0,0.00022,4e-05,0.0,-5e-05,-4e-05,6e-05,-0.0002,0.00011,2.0
35553.0,0.00022,4e-05,0.0,-5e-05,-4e-05,6e-05,-0.0002,0.00011,2.0
35554.0,0.00022,4e-05,0.0,-5e-05,-4e-05,6e-05,-0.0002,0.00011,2.0
35555.0,0.00022,4e-05,0.0,-5e-05,-4e-05,6e-05,-0.0002,0.00011,2.0
35556.0,0.00022,4e-05,0.0,-5e-05,-4e-05,6e-05,-0.0002,0.00011,2.0
35557.0,0.00022,4e-05,0.0,-5e-05,-4e-05,6e-05,-0.0002,0.00011,2.0
35558.0,0.00022,4e-05,0.0,-5e-05,-4e-05,6e-05,-0.0002,0.00011,2.0
35559.0,-0.00054,-0.00015,-0.00015,-8e-05,-0.00012,-0.00016,-0.0001,-8e-05,2.0
35560.0,0.00015,0.0001,0.00019,4e-05,3e-05,5e-05,2e-05,-5e-05,2.0
35561.0,9e-05,8e-05,0.00014,-6e-05,0.00016,0.0,-1e-05,8e-05,2.0
35562.0,9e-05,8e-05,0.00014,-6e-05,0.00016,0.0,-1e-05,8e-05,2.0
35563.0,9e-05,8e-05,0.00014,-6e-05,0.00016,0.0,-1e-05,8e-05,2.0
35564.0,9e-05,8e-05,0.00014,-6e-05,0.00016,0.0,-1e-05,8e-05,2.0
35565.0,9e-05,8e-05,0.00014,-6e-05,0.00016,0.0,-1e-05,8e-05,2.0
35566.0,9e-05,8e-05,0.00014,-6e-05,0.00016,0.0,-1e-05,8e-05,2.0
35567.0,9e-05,8e-05,0.00014,-6e-05,0.00016,0.0,-1e-05,8e-05,2.0
35568.0,9e-05,8e-05,0.00014,-6e-05,0.00016,0.0,-1e-05,8e-05,2.0
35569.0,9e-05,8e-05,0.00014,-6e-05,0.00016,0.0,-1e-05,8e-05,2.0
35570.0,9e-05,8e-05,0.00014,-6e-05,0.00016,0.0,-1e-05,8e-05,2.0
35571.0,9e-05,8e-05,0.00014,-6e-05,0.00016,0.0,-1e-05,8e-05,2.0
35572.0,9e-05,8e-05,0.00014,-6e-05,0.00016,0.0,-1e-05,8e-05,2.0
35573.0,9e-05,8e-05,0.00014,-6e-05,0.00016,0.0,-1e-05,8e-05,2.0
35574.0,9e-05,8e-05,0.00014,-6e-05,0.00016,0.0,-1e-05,8e-05,2.0
35575.0,9e-05,8e-05,0.00014,-6e-05,0.00016,0.0,-1e-05,8e-05,2.0
35576.0,9e-05,8e-05,0.00014,-6e-05,0.00016,0.0,-1e-05,8e-05,2.0
35577.0,9e-05,8e-05,0.00014,-6e-05,0.00016,0.0,-1e-05,8e-05,2.0
35578.0,9e-05,8e-05,0.00014,-6e-05,0.00016,0.0,-1e-05,8e-05,2.0
35579.0,9e-05,8e-05,0.00014,-6e-05,0.00016,0.0,-1e-05,8e-05,2.0
35580.0,9e-05,8e-05,0.00014,-6e-05,0.00016,0.0,-1e-05,8e-05,2.0
35581.0,9e-05,8e-05,0.00014,-6e-05,0.00016,0.0,-1e-05,8e-05,2.0
35582.0,9e-05,8e-05,0.00014,-6e-05,0.00016,0.0,-1e-05,8e-05,2.0
35583.0,9e-05,8e-05,0.00014,-6e-05,0.00016,0.0,-1e-05,8e-05,2.0
35584.0,9e-05,8e-05,0.00014,-6e-05,0.00016,0.0,-1e-05,8e-05,2.0
35585.0,9e-05,8e-05,0.00014,-6e-05,0.00016,0.0,-1e-05,8e-05,2.0
35586.0,9e-05,8e-05,0.00014,-6e-05,0.00016,0.0,-1e-05,8e-05,2.0
35588.0,9e-05,8e-05,0.00014,-6e-05,0.00016,0.0,-1e-05,8e-05,2.0
35589.0,0.0002,-0.00016,-0.00035,-0.00024,-3e-05,5e-05,-8e-05,2e-05,2.0
35590.0,0.0002,-0.00016,-0.00035,-0.00024,-3e-05,5e-05,-8e-05,2e-05,2.0
35591.0,-3e-05,-1e-05,0.0001,-8e-05,-0.00011,-8e-05,-0.00014,-0.00016,2.0
35592.0,-3e-05,-1e-05,0.0001,-8e-05,-0.00011,-8e-05,-0.00014,-0.00016,2.0
35593.0,-3e-05,-1e-05,0.0001,-8e-05,-0.00011,-8e-05,-0.00014,-0.00016,2.0
35594.0,-3e-05,-1e-05,0.0001,-8e-05,-0.00011,-8e-05,-0.00014,-0.00016,2.0
35595.0,-3e-05,-1e-05,0.0001,-8e-05,-0.00011,-8e-05,-0.00014,-0.00016,2.0
35597.0,-3e-05,-1e-05,0.0001,-8e-05,-0.00011,-8e-05,-0.00014,-0.00016,2.0
35598.0,-3e-05,-1e-05,0.0001,-8e-05,-0.00011,-8e-05,-0.00014,-0.00016,2.0
35599.0,-3e-05,-1e-05,0.0001,-8e-05,-0.00011,-8e-05,-0.00014,-0.00016,2.0
35600.0,-3e-05,-1e-05,0.0001,-8e-05,-0.00011,-8e-05,-0.00014,-0.00016,2.0
35601.0,-3e-05,-1e-05,0.0001,-8e-05,-0.00011,-8e-05,-0.00014,-0.00016,2.0
35602.0,-3e-05,-1e-05,0.0001,-8e-05,-0.00011,-8e-05,-0.00014,-0.00016,2.0
35603.0,-3e-05,-1e-05,0.0001,-8e-05,-0.00011,-8e-05,-0.00014,-0.00016,2.0
35604.0,7e-05,4e-05,-2e-05,-3e-05,0.0001,4e-05,0.00015,0.00013,2.0
35605.0,7e-05,4e-05,-2e-05,-3e-05,0.0001,4e-05,0.00015,0.00013,2.0
35606.0,7e-05,4e-05,-2e-05,-3e-05,0.0001,4e-05,0.00015,0.00013,2.0
35607.0,7e-05,4e-05,-2e-05,-3e-05,0.0001,4e-05,0.00015,0.00013,2.0
35608.0,7e-05,4e-05,-2e-05,-3e-05,0.0001,4e-05,0.00015,0.00013,2.0
35609.0,7e-05,4e-05,-2e-05,-3e-05,0.0001,4e-05,0.00015,0.00013,2.0
35610.0,7e-05,4e-05,-2e-05,-3e-05,0.0001,4e-05,0.00015,0.00013,2.0
35611.0,-3e-05,-2e-05,-9e-05,-0.00012,-2e-05,8e-05,-4e-05,-0.00015,2.0
35612.0,1e-05,-1e-05,-1e-05,1e-05,-6e-05,4e-05,6e-05,2e-05,2.0
35613.0,1e-05,-1e-05,-1e-05,1e-05,-6e-05,4e-05,6e-05,2e-05,2.0
35614.0,1e-05,-1e-05,-1e-05,1e-05,-6e-05,4e-05,6e-05,2e-05,2.0
35615.0,1e-05,-1e-05,-1e-05,1e-05,-6e-05,4e-05,6e-05,2e-05,2.0
35616.0,1e-05,-1e-05,-1e-05,1e-05,-6e-05,4e-05,6e-05,2e-05,2.0
35617.0,1e-05,-1e-05,-1e-05,1e-05,-6e-05,4e-05,6e-05,2e-05,2.0
35618.0,1e-05,-1e-05,-1e-05,1e-05,-6e-05,4e-05,6e-05,2e-05,2.0
35619.0,-7e-05,-9e-05,-8e-05,-2e-05,5e-05,0.00014,3e-05,-8e-05,2.0
35620.0,0.00015,1e-05,-8e-05,1e-05,4e-05,-4e-05,0.0001,0.00012,2.0
35621.0,-0.00029,0.0,0.0001,1e-05,-6e-05,-7e-05,4e-05,-0.00024,2.0
35622.0,-0.00029,0.0,0.0001,1e-05,-6e-05,-7e-05,4e-05,-0.00024,2.0
35624.0,-0.00029,0.0,0.0001,1e-05,-6e-05,-7e-05,4e-05,-0.00024,2.0
35625.0,-0.00029,0.0,0.0001,1e-05,-6e-05,-7e-05,4e-05,-0.00024,2.0
35626.0,-0.00029,0.0,0.0001,1e-05,-6e-05,-7e-05,4e-05,-0.00024,2.0
35627.0,-0.00029,0.0,0.0001,1e-05,-6e-05,-7e-05,4e-05,-0.00024,2.0
35628.0,-0.00029,0.0,0.0001,1e-05,-6e-05,-7e-05,4e-05,-0.00024,2.0
35629.0,-0.00029,0.0,0.0001,1e-05,-6e-05,-7e-05,4e-05,-0.00024,2.0
35630.0,-0.00029,0.0,0.0001,1e-05,-6e-05,-7e-05,4e-05,-0.00024,2.0
35631.0,-0.00029,0.0,0.0001,1e-05,-6e-05,-7e-05,4e-05,-0.00024,2.0
35632.0,-0.00029,0.0,0.0001,1e-05,-6e-05,-7e-05,4e-05,-0.00024,2.0
35633.0,-0.00029,0.0,0.0001,1e-05,-6e-05,-7e-05,4e-05,-0.00024,2.0
35634.0,-0.00029,0.0,0.0001,1e-05,-6e-05,-7e-05,4e-05,-0.00024,2.0
35635.0,-0.00029,0.0,0.0001,1e-05,-6e-05,-7e-05,4e-05,-0.00024,2.0
35636.0,-0.00029,0.0,0.0001,1e-05,-6e-05,-7e-05,4e-05,-0.00024,2.0
35638.0,-0.00029,0.0,0.0001,1e-05,-6e-05,-7e-05,4e-05,-0.00024,2.0
35639.0,-0.00029,0.0,0.0001,1e-05,-6e-05,-7e-05,4e-05,-0.00024,2.0
35640.0,-0.00029,0.0,0.0001,1e-05,-6e-05,-7e-05,4e-05,-0.00024,2.0
35641.0,-0.00029,0.0,0.0001,1e-05,-6e-05,-7e-05,4e-05,-0.00024,2.0
35642.0,-0.00029,0.0,0.0001,1e-05,-6e-05,-7e-05,4e-05,-0.00024,2.0
35643.0,0.00021,3e-05,3e-05,0.0,-0.00011,-7e-05,-0.00028,-6e-05,2.0
35644.0,-5e-05,0.0001,0.00017,0.00013,0.00012,-2e-05,0.00015,-1e-05,2.0
35645.0,-5e-05,0.0001,0.00017,0.00013,0.00012,-2e-05,0.00015,-1e-05,2.0
35646.0,-5e-05,0.0001,0.00017,0.00013,0.00012,-2e-05,0.00015,-1e-05,2.0
35647.0,-5e-05,0.0001,0.00017,0.00013,0.00012,-2e-05,0.00015,-1e-05,2.0
35648.0,-5e-05,0.0001,0.00017,0.00013,0.00012,-2e-05,0.00015,-1e-05,2.0
35649.0,-5e-05,0.0001,0.00017,0.00013,0.00012,-2e-05,0.00015,-1e-05,2.0
35650.0,-5e-05,0.0001,0.00017,0.00013,0.00012,-2e-05,0.00015,-1e-05,2.0
35651.0,-5e-05,0.0001,0.00017,0.00013,0.00012,-2e-05,0.00015,-1e-05,2.0
35652.0,-5e-05,0.0001,0.00017,0.00013,0.00012,-2e-05,0.00015,-1e-05,2.0
35653.0,-5e-05,0.0001,0.00017,0.00013,0.00012,-2e-05,0.00015,-1e-05,2.0
35654.0,-5e-05,0.0001,0.00017,0.00013,0.00012,-2e-05,0.00015,-1e-05,2.0
35655.0,-5e-05,0.0001,0.00017,0.00013,0.00012,-2e-05,0.00015,-1e-05,2.0
35656.0,-5e-05,0.0001,0.00017,0.00013,0.00012,-2e-05,0.00015,-1e-05,2.0
35657.0,-5e-05,0.0001,0.00017,0.00013,0.00012,-2e-05,0.00015,-1e-05,2.0
35658.0,-5e-05,0.0001,0.00017,0.00013,0.00012,-2e-05,0.00015,-1e-05,2.0
35659.0,-5e-05,0.0001,0.00017,0.00013,0.00012,-2e-05,0.00015,-1e-05,2.0
35660.0,-5e-05,0.0001,0.00017,0.00013,0.00012,-2e-05,0.00015,-1e-05,2.0
35661.0,-5e-05,0.0001,0.00017,0.00013,0.00012,-2e-05,0.00015,-1e-05,2.0
35662.0,-5e-05,0.0001,0.00017,0.00013,0.00012,-2e-05,0.00015,-1e-05,2.0
35663.0,-5e-05,0.0001,0.00017,0.00013,0.00012,-2e-05,0.00015,-1e-05,2.0
35664.0,-8e-05,-5e-05,-0.00015,-0.0001,-0.0001,-2e-05,1e-05,-4e-05,2.0
35665.0,0.00021,0.0,-0.00021,-9e-05,2e-05,1e-05,-0.0001,5e-05,2.0
35666.0,0.0,0.00019,0.00038,0.00013,-2e-05,-5e-05,-0.00026,-7e-05,2.0
35667.0,0.0,0.00019,0.00038,0.00013,-2e-05,-5e-05,-0.00026,-7e-05,2.0
35668.0,0.0,0.00019,0.00038,0.00013,-2e-05,-5e-05,-0.00026,-7e-05,2.0
35669.0,0.0,0.00019,0.00038,0.00013,-2e-05,-5e-05,-0.00026,-7e-05,2.0
35670.0,0.0,0.00019,0.00038,0.00013,-2e-05,-5e-05,-0.00026,-7e-05,2.0
35671.0,0.0,0.00019,0.00038,0.00013,-2e-05,-5e-05,-0.00026,-7e-05,2.0
35672.0,0.0,0.00019,0.00038,0.00013,-2e-05,-5e-05,-0.00026,-7e-05,2.0
35673.0,0.0,0.00019,0.00038,0.00013,-2e-05,-5e-05,-0.00026,-7e-05,2.0
35674.0,0.0,0.00019,0.00038,0.00013,-2e-05,-5e-05,-0.00026,-7e-05,2.0
35675.0,0.0,0.00019,0.00038,0.00013,-2e-05,-5e-05,-0.00026,-7e-05,2.0
35676.0,0.0,0.00019,0.00038,0.00013,-2e-05,-5e-05,-0.00026,-7e-05,2.0
35677.0,0.0,0.00019,0.00038,0.00013,-2e-05,-5e-05,-0.00026,-7e-05,2.0
35678.0,-2e-05,-0.00015,-0.00021,-6e-05,-5e-05,-0.00011,-9e-05,-4e-05,2.0
35679.0,-2e-05,-0.00015,-0.00021,-6e-05,-5e-05,-0.00011,-9e-05,-4e-05,2.0
35680.0,-2e-05,-0.00015,-0.00021,-6e-05,-5e-05,-0.00011,-9e-05,-4e-05,2.0
35681.0,-2e-05,-0.00015,-0.00021,-6e-05,-5e-05,-0.00011,-9e-05,-4e-05,2.0
35682.0,-2e-05,-0.00015,-0.00021,-6e-05,-5e-05,-0.00011,-9e-05,-4e-05,2.0
35683.0,-2e-05,-0.00015,-0.00021,-6e-05,-5e-05,-0.00011,-9e-05,-4e-05,2.0
35684.0,-2e-05,-0.00015,-0.00021,-6e-05,-5e-05,-0.00011,-9e-05,-4e-05,2.0
35685.0,-2e-05,-0.00015,-0.00021,-6e-05,-5e-05,-0.00011,-9e-05,-4e-05,2.0
35686.0,0.00013,4e-05,-3e-05,0.0,9e-05,4e-05,0.00012,0.00016,2.0
35690.0,0.00013,4e-05,-3e-05,0.0,9e-05,4e-05,0.00012,0.00016,2.0
35691.0,0.00013,4e-05,-3e-05,0.0,9e-05,4e-05,0.00012,0.00016,2.0
35692.0,0.00013,4e-05,-3e-05,0.0,9e-05,4e-05,0.00012,0.00016,2.0
35693.0,0.00013,4e-05,-3e-05,0.0,9e-05,4e-05,0.00012,0.00016,2.0
35694.0,0.00013,4e-05,-3e-05,0.0,9e-05,4e-05,0.00012,0.00016,2.0
35695.0,0.00013,4e-05,-3e-05,0.0,9e-05,4e-05,0.00012,0.00016,2.0
35696.0,0.00013,4e-05,-3e-05,0.0,9e-05,4e-05,0.00012,0.00016,2.0
35697.0,0.00013,4e-05,-3e-05,0.0,9e-05,4e-05,0.00012,0.00016,2.0
35698.0,0.00013,4e-05,-3e-05,0.0,9e-05,4e-05,0.00012,0.00016,2.0
35699.0,0.00013,4e-05,-3e-05,0.0,9e-05,4e-05,0.00012,0.00016,2.0
35700.0,0.00013,4e-05,-3e-05,0.0,9e-05,4e-05,0.00012,0.00016,2.0
35701.0,-4e-05,0.00012,0.00025,0.0001,4e-05,8e-05,9e-05,0.0,2.0
35702.0,-4e-05,0.00012,0.00025,0.0001,4e-05,8e-05,9e-05,0.0,2.0
35703.0,4e-05,3e-05,3e-05,0.00014,4e-05,2e-05,-4e-05,6e-05,2.0
35704.0,4e-05,3e-05,3e-05,0.00014,4e-05,2e-05,-4e-05,6e-05,2.0
35705.0,4e-05,3e-05,3e-05,0.00014,4e-05,2e-05,-4e-05,6e-05,2.0
35706.0,4e-05,3e-05,3e-05,0.00014,4e-05,2e-05,-4e-05,6e-05,2.0
35707.0,4e-05,3e-05,3e-05,0.00014,4e-05,2e-05,-4e-05,6e-05,2.0
35708.0,4e-05,3e-05,3e-05,0.00014,4e-05,2e-05,-4e-05,6e-05,2.0
35709.0,4e-05,3e-05,3e-05,0.00014,4e-05,2e-05,-4e-05,6e-05,2.0
35710.0,4e-05,3e-05,3e-05,0.00014,4e-05,2e-05,-4e-05,6e-05,2.0
35711.0,4e-05,3e-05,3e-05,0.00014,4e-05,2e-05,-4e-05,6e-05,2.0
35712.0,4e-05,3e-05,3e-05,0.00014,4e-05,2e-05,-4e-05,6e-05,2.0
35713.0,4e-05,3e-05,3e-05,0.00014,4e-05,2e-05,-4e-05,6e-05,2.0
35714.0,4e-05,3e-05,3e-05,0.00014,4e-05,2e-05,-4e-05,6e-05,2.0
35715.0,0.00014,4e-05,-2e-05,-0.00017,-0.00013,-8e-05,-2e-05,8e-05,2.0
35716.0,-0.00011,-0.00012,-0.00015,-0.00011,-3e-05,-2e-05,0.00011,-0.00011,2.0
35717.0,-0.00011,-0.00012,-0.00015,-0.00011,-3e-05,-2e-05,0.00011,-0.00011,2.0
35718.0,-0.00011,-0.00012,-0.00015,-0.00011,-3e-05,-2e-05,0.00011,-0.00011,2.0
35719.0,-0.00011,-0.00012,-0.00015,-0.00011,-3e-05,-2e-05,0.00011,-0.00011,2.0
35720.0,-0.00011,-0.00012,-0.00015,-0.00011,-3e-05,-2e-05,0.00011,-0.00011,2.0
35721.0,-0.00011,-0.00012,-0.00015,-0.00011,-3e-05,-2e-05,0.00011,-0.00011,2.0
35722.0,-0.00011,-0.00012,-0.00015,-0.00011,-3e-05,-2e-05,0.00011,-0.00011,2.0
35723.0,-0.00011,-0.00012,-0.00015,-0.00011,-3e-05,-2e-05,0.00011,-0.00011,2.0
35724.0,-0.00011,-0.00012,-0.00015,-0.00011,-3e-05,-2e-05,0.00011,-0.00011,2.0
35725.0,-9e-05,-5e-05,-0.0001,-6e-05,-2e-05,0.00017,0.00014,2e-05,2.0
35726.0,-9e-05,-5e-05,-0.0001,-6e-05,-2e-05,0.00017,0.00014,2e-05,2.0
35727.0,-9e-05,-5e-05,-0.0001,-6e-05,-2e-05,0.00017,0.00014,2e-05,2.0
35728.0,-9e-05,-5e-05,-0.0001,-6e-05,-2e-05,0.00017,0.00014,2e-05,2.0
35729.0,-9e-05,-5e-05,-0.0001,-6e-05,-2e-05,0.00017,0.00014,2e-05,2.0
35730.0,-9e-05,-5e-05,-0.0001,-6e-05,-2e-05,0.00017,0.00014,2e-05,2.0
35731.0,-9e-05,-5e-05,-0.0001,-6e-05,-2e-05,0.00017,0.00014,2e-05,2.0
35732.0,-9e-05,-5e-05,-0.0001,-6e-05,-2e-05,0.00017,0.00014,2e-05,2.0
35733.0,-9e-05,-5e-05,-0.0001,-6e-05,-2e-05,0.00017,0.00014,2e-05,2.0
35734.0,-9e-05,-5e-05,-0.0001,-6e-05,-2e-05,0.00017,0.00014,2e-05,2.0
35735.0,-9e-05,-5e-05,-0.0001,-6e-05,-2e-05,0.00017,0.00014,2e-05,2.0
35736.0,-9e-05,-5e-05,-0.0001,-6e-05,-2e-05,0.00017,0.00014,2e-05,2.0
35740.0,0.00025,0.00014,0.00034,0.00022,-6e-05,-5e-05,8e-05,0.00019,2.0
35741.0,8e-05,-0.00016,-0.00037,-0.00011,-0.00011,-0.00011,0.0,-5e-05,2.0
35742.0,8e-05,-0.00016,-0.00037,-0.00011,-0.00011,-0.00011,0.0,-5e-05,2.0
35743.0,8e-05,-0.00016,-0.00037,-0.00011,-0.00011,-0.00011,0.0,-5e-05,2.0
35744.0,8e-05,-0.00016,-0.00037,-0.00011,-0.00011,-0.00011,0.0,-5e-05,2.0
35745.0,8e-05,-0.00016,-0.00037,-0.00011,-0.00011,-0.00011,0.0,-5e-05,2.0
35746.0,8e-05,-0.00016,-0.00037,-0.00011,-0.00011,-0.00011,0.0,-5e-05,2.0
35747.0,8e-05,-0.00016,-0.00037,-0.00011,-0.00011,-0.00011,0.0,-5e-05,2.0
35748.0,8e-05,-0.00016,-0.00037,-0.00011,-0.00011,-0.00011,0.0,-5e-05,2.0
35749.0,8e-05,-0.00016,-0.00037,-0.00011,-0.00011,-0.00011,0.0,-5e-05,2.0
35750.0,8e-05,-0.00016,-0.00037,-0.00011,-0.00011,-0.00011,0.0,-5e-05,2.0
35751.0,8e-05,-0.00016,-0.00037,-0.00011,-0.00011,-0.00011,0.0,-5e-05,2.0
35752.0,8e-05,-0.00016,-0.00037,-0.00011,-0.00011,-0.00011,0.0,-5e-05,2.0
35753.0,8e-05,-0.00016,-0.00037,-0.00011,-0.00011,-0.00011,0.0,-5e-05,2.0
35754.0,8e-05,-0.00016,-0.00037,-0.00011,-0.00011,-0.00011,0.0,-5e-05,2.0
35755.0,8e-05,-0.00016,-0.00037,-0.00011,-0.00011,-0.00011,0.0,-5e-05,2.0
35756.0,8e-05,-0.00016,-0.00037,-0.00011,-0.00011,-0.00011,0.0,-5e-05,2.0
35757.0,8e-05,-0.00016,-0.00037,-0.00011,-0.00011,-0.00011,0.0,-5e-05,2.0
35758.0,8e-05,-0.00016,-0.00037,-0.00011,-0.00011,-0.00011,0.0,-5e-05,2.0
35759.0,8e-05,-0.00016,-0.00037,-0.00011,-0.00011,-0.00011,0.0,-5e-05,2.0
35760.0,8e-05,-0.00016,-0.00037,-0.00011,-0.00011,-0.00011,0.0,-5e-05,2.0
35761.0,-0.00017,-3e-05,-0.00021,-2e-05,9e-05,2e-05,0.00011,0.0001,2.0
35762.0,-0.00017,-3e-05,-0.00021,-2e-05,9e-05,2e-05,0.00011,0.0001,2.0
35763.0,9e-05,1e-05,-8e-05,-0.00023,-0.0001,4e-05,-0.00014,8e-05,2.0
35764.0,9e-05,1e-05,-8e-05,-0.00023,-0.0001,4e-05,-0.00014,8e-05,2.0
35765.0,9e-05,1e-05,-8e-05,-0.00023,-0.0001,4e-05,-0.00014,8e-05,2.0
35766.0,9e-05,1e-05,-8e-05,-0.00023,-0.0001,4e-05,-0.00014,8e-05,2.0
35767.0,9e-05,1e-05,-8e-05,-0.00023,-0.0001,4e-05,-0.00014,8e-05,2.0
35768.0,9e-05,1e-05,-8e-05,-0.00023,-0.0001,4e-05,-0.00014,8e-05,2.0
35769.0,9e-05,1e-05,-8e-05,-0.00023,-0.0001,4e-05,-0.00014,8e-05,2.0
35770.0,9e-05,1e-05,-8e-05,-0.00023,-0.0001,4e-05,-0.00014,8e-05,2.0
35771.0,9e-05,1e-05,-8e-05,-0.00023,-0.0001,4e-05,-0.00014,8e-05,2.0
35772.0,9e-05,1e-05,-8e-05,-0.00023,-0.0001,4e-05,-0.00014,8e-05,2.0
35773.0,9e-05,1e-05,-8e-05,-0.00023,-0.0001,4e-05,-0.00014,8e-05,2.0
35774.0,9e-05,1e-05,-8e-05,-0.00023,-0.0001,4e-05,-0.00014,8e-05,2.0
35775.0,-1e-05,0.00013,0.00036,5e-05,-2e-05,-1e-05,-0.0001,-7e-05,2.0
35776.0,-1e-05,0.00013,0.00036,5e-05,-2e-05,-1e-05,-0.0001,-7e-05,2.0
35777.0,-1e-05,0.00013,0.00036,5e-05,-2e-05,-1e-05,-0.0001,-7e-05,2.0
35778.0,-1e-05,0.00013,0.00036,5e-05,-2e-05,-1e-05,-0.0001,-7e-05,2.0
35779.0,-1e-05,0.00013,0.00036,5e-05,-2e-05,-1e-05,-0.0001,-7e-05,2.0
35780.0,-1e-05,0.00013,0.00036,5e-05,-2e-05,-1e-05,-0.0001,-7e-05,2.0
35781.0,-1e-05,0.00013,0.00036,5e-05,-2e-05,-1e-05,-0.0001,-7e-05,2.0
35782.0,-1e-05,0.00013,0.00036,5e-05,-2e-05,-1e-05,-0.0001,-7e-05,2.0
35783.0,-1e-05,0.00013,0.00036,5e-05,-2e-05,-1e-05,-0.0001,-7e-05,2.0
35785.0,-1e-05,0.00013,0.00036,5e-05,-2e-05,-1e-05,-0.0001,-7e-05,2.0
35786.0,-1e-05,0.00013,0.00036,5e-05,-2e-05,-1e-05,-0.0001,-7e-05,2.0
35788.0,-1e-05,0.00013,0.00036,5e-05,-2e-05,-1e-05,-0.0001,-7e-05,2.0
35790.0,-1e-05,0.00013,0.00036,5e-05,-2e-05,-1e-05,-0.0001,-7e-05,2.0
35791.0,-1e-05,0.00013,0.00036,5e-05,-2e-05,-1e-05,-0.0001,-7e-05,2.0
35792.0,6e-05,-0.00013,-0.00016,0.0,-3e-05,0.0,6e-05,5e-05,2.0
35793.0,6e-05,-0.00013,-0.00016,0.0,-3e-05,0.0,6e-05,5e-05,2.0
35794.0,6e-05,-0.00013,-0.00016,0.0,-3e-05,0.0,6e-05,5e-05,2.0
35795.0,6e-05,-0.00013,-0.00016,0.0,-3e-05,0.0,6e-05,5e-05,2.0
35796.0,6e-05,-0.00013,-0.00016,0.0,-3e-05,0.0,6e-05,5e-05,2.0
35797.0,6e-05,-0.00013,-0.00016,0.0,-3e-05,0.0,6e-05,5e-05,2.0
35798.0,6e-05,-0.00013,-0.00016,0.0,-3e-05,0.0,6e-05,5e-05,2.0
35799.0,0.00016,8e-05,5e-05,-5e-05,-2e-05,-3e-05,-3e-05,7e-05,2.0
35800.0,0.00016,8e-05,5e-05,-5e-05,-2e-05,-3e-05,-3e-05,7e-05,2.0
35801.0,0.00016,8e-05,5e-05,-5e-05,-2e-05,-3e-05,-3e-05,7e-05,2.0
35802.0,0.00016,8e-05,5e-05,-5e-05,-2e-05,-3e-05,-3e-05,7e-05,2.0
35803.0,0.00016,8e-05,5e-05,-5e-05,-2e-05,-3e-05,-3e-05,7e-05,2.0
35804.0,0.00016,8e-05,5e-05,-5e-05,-2e-05,-3e-05,-3e-05,7e-05,2.0
35805.0,0.00016,8e-05,5e-05,-5e-05,-2e-05,-3e-05,-3e-05,7e-05,2.0
35806.0,0.00016,8e-05,5e-05,-5e-05,-2e-05,-3e-05,-3e-05,7e-05,2.0
35807.0,0.00016,8e-05,5e-05,-5e-05,-2e-05,-3e-05,-3e-05,7e-05,2.0
35808.0,0.00016,8e-05,5e-05,-5e-05,-2e-05,-3e-05,-3e-05,7e-05,2.0
35809.0,0.00016,8e-05,5e-05,-5e-05,-2e-05,-3e-05,-3e-05,7e-05,2.0
35810.0,0.00016,8e-05,5e-05,-5e-05,-2e-05,-3e-05,-3e-05,7e-05,2.0
35811.0,0.00016,8e-05,5e-05,-5e-05,-2e-05,-3e-05,-3e-05,7e-05,2.0
35812.0,0.00016,8e-05,5e-05,-5e-05,-2e-05,-3e-05,-3e-05,7e-05,2.0
35813.0,-3e-05,-7e-05,0.00016,0.0001,4e-05,-8e-05,-0.00011,-0.0001,2.0
35814.0,-3e-05,-7e-05,0.00016,0.0001,4e-05,-8e-05,-0.00011,-0.0001,2.0
35815.0,-3e-05,-7e-05,0.00016,0.0001,4e-05,-8e-05,-0.00011,-0.0001,2.0
35816.0,-3e-05,-7e-05,0.00016,0.0001,4e-05,-8e-05,-0.00011,-0.0001,2.0
35817.0,-3e-05,-7e-05,0.00016,0.0001,4e-05,-8e-05,-0.00011,-0.0001,2.0
35818.0,-3e-05,-7e-05,0.00016,0.0001,4e-05,-8e-05,-0.00011,-0.0001,2.0
35819.0,-3e-05,-7e-05,0.00016,0.0001,4e-05,-8e-05,-0.00011,-0.0001,2.0
35820.0,-3e-05,-7e-05,0.00016,0.0001,4e-05,-8e-05,-0.00011,-0.0001,2.0
35821.0,-3e-05,-7e-05,0.00016,0.0001,4e-05,-8e-05,-0.00011,-0.0001,2.0
35822.0,1e-05,3e-05,0.00011,5e-05,2e-05,-9e-05,0.00014,8e-05,2.0
35823.0,-2e-05,2e-05,5e-05,0.0,-8e-05,-2e-05,0.0,3e-05,2.0
35824.0,-2e-05,2e-05,5e-05,0.0,-8e-05,-2e-05,0.0,3e-05,2.0
35825.0,-2e-05,2e-05,5e-05,0.0,-8e-05,-2e-05,0.0,3e-05,2.0
35826.0,-2e-05,2e-05,5e-05,0.0,-8e-05,-2e-05,0.0,3e-05,2.0
35827.0,-2e-05,2e-05,5e-05,0.0,-8e-05,-2e-05,0.0,3e-05,2.0
35828.0,-2e-05,2e-05,5e-05,0.0,-8e-05,-2e-05,0.0,3e-05,2.0
35829.0,-2e-05,2e-05,5e-05,0.0,-8e-05,-2e-05,0.0,3e-05,2.0
35831.0,-2e-05,2e-05,5e-05,0.0,-8e-05,-2e-05,0.0,3e-05,2.0
35832.0,-2e-05,2e-05,5e-05,0.0,-8e-05,-2e-05,0.0,3e-05,2.0
35833.0,-2e-05,2e-05,5e-05,0.0,-8e-05,-2e-05,0.0,3e-05,2.0
35834.0,-2e-05,2e-05,5e-05,0.0,-8e-05,-2e-05,0.0,3e-05,2.0
35835.0,-6e-05,-3e-05,-0.00011,-8e-05,-5e-05,-8e-05,0.00024,-0.00011,2.0
35836.0,-6e-05,-3e-05,-0.00011,-8e-05,-5e-05,-8e-05,0.00024,-0.00011,2.0
35839.0,-6e-05,-3e-05,-0.00011,-8e-05,-5e-05,-8e-05,0.00024,-0.00011,2.0
35840.0,-6e-05,-3e-05,-0.00011,-8e-05,-5e-05,-8e-05,0.00024,-0.00011,2.0
35841.0,-6e-05,-3e-05,-0.00011,-8e-05,-5e-05,-8e-05,0.00024,-0.00011,2.0
35842.0,-6e-05,-3e-05,-0.00011,-8e-05,-5e-05,-8e-05,0.00024,-0.00011,2.0
35843.0,-2e-05,6e-05,0.00012,0.00011,-1e-05,-5e-05,-8e-05,0.0,2.0
35844.0,-9e-05,-8e-05,-0.00012,8e-05,4e-05,-0.00018,9e-05,-6e-05,2.0
35845.0,-9e-05,-8e-05,-0.00012,8e-05,4e-05,-0.00018,9e-05,-6e-05,2.0
35846.0,-9e-05,-8e-05,-0.00012,8e-05,4e-05,-0.00018,9e-05,-6e-05,2.0
35847.0,-9e-05,-8e-05,-0.00012,8e-05,4e-05,-0.00018,9e-05,-6e-05,2.0
35848.0,-9e-05,-8e-05,-0.00012,8e-05,4e-05,-0.00018,9e-05,-6e-05,2.0
35849.0,-9e-05,-8e-05,-0.00012,8e-05,4e-05,-0.00018,9e-05,-6e-05,2.0
35850.0,-9e-05,-8e-05,-0.00012,8e-05,4e-05,-0.00018,9e-05,-6e-05,2.0
35851.0,-9e-05,-8e-05,-0.00012,8e-05,4e-05,-0.00018,9e-05,-6e-05,2.0
35852.0,-9e-05,-8e-05,-0.00012,8e-05,4e-05,-0.00018,9e-05,-6e-05,2.0
35853.0,-9e-05,-8e-05,-0.00012,8e-05,4e-05,-0.00018,9e-05,-6e-05,2.0
35854.0,-9e-05,-8e-05,-0.00012,8e-05,4e-05,-0.00018,9e-05,-6e-05,2.0
35855.0,-9e-05,-8e-05,-0.00012,8e-05,4e-05,-0.00018,9e-05,-6e-05,2.0
35856.0,-9e-05,-8e-05,-0.00012,8e-05,4e-05,-0.00018,9e-05,-6e-05,2.0
35857.0,-9e-05,-8e-05,-0.00012,8e-05,4e-05,-0.00018,9e-05,-6e-05,2.0
35858.0,-9e-05,-8e-05,-0.00012,8e-05,4e-05,-0.00018,9e-05,-6e-05,2.0
35859.0,-9e-05,-8e-05,-0.00012,8e-05,4e-05,-0.00018,9e-05,-6e-05,2.0
35860.0,-9e-05,-8e-05,-0.00012,8e-05,4e-05,-0.00018,9e-05,-6e-05,2.0
35861.0,-9e-05,-8e-05,-0.00012,8e-05,4e-05,-0.00018,9e-05,-6e-05,2.0
35862.0,-9e-05,-8e-05,-0.00012,8e-05,4e-05,-0.00018,9e-05,-6e-05,2.0
35863.0,-9e-05,-8e-05,-0.00012,8e-05,4e-05,-0.00018,9e-05,-6e-05,2.0
35864.0,-9e-05,-8e-05,-0.00012,8e-05,4e-05,-0.00018,9e-05,-6e-05,2.0
35865.0,-9e-05,-8e-05,-0.00012,8e-05,4e-05,-0.00018,9e-05,-6e-05,2.0
35866.0,-9e-05,-8e-05,-0.00012,8e-05,4e-05,-0.00018,9e-05,-6e-05,2.0
35867.0,-9e-05,-8e-05,-0.00012,8e-05,4e-05,-0.00018,9e-05,-6e-05,2.0
35868.0,-9e-05,-8e-05,-0.00012,8e-05,4e-05,-0.00018,9e-05,-6e-05,2.0
35869.0,-9e-05,-8e-05,-0.00012,8e-05,4e-05,-0.00018,9e-05,-6e-05,2.0
35870.0,-9e-05,-8e-05,-0.00012,8e-05,4e-05,-0.00018,9e-05,-6e-05,2.0
35871.0,-9e-05,-8e-05,-0.00012,8e-05,4e-05,-0.00018,9e-05,-6e-05,2.0
35872.0,-9e-05,-8e-05,-0.00012,8e-05,4e-05,-0.00018,9e-05,-6e-05,2.0
35873.0,-9e-05,-8e-05,-0.00012,8e-05,4e-05,-0.00018,9e-05,-6e-05,2.0
35874.0,0.00018,4e-05,0.00011,9e-05,-6e-05,-2e-05,0.00023,0.00024,2.0
35875.0,-1e-05,0.0,-6e-05,-6e-05,1e-05,-8e-05,-0.0003,-0.00025,2.0
35876.0,4e-05,8e-05,0.0001,-2e-05,-0.00016,-5e-05,0.00024,5e-05,2.0
35877.0,4e-05,8e-05,0.0001,-2e-05,-0.00016,-5e-05,0.00024,5e-05,2.0
35878.0,4e-05,8e-05,0.0001,-2e-05,-0.00016,-5e-05,0.00024,5e-05,2.0
35879.0,4e-05,8e-05,0.0001,-2e-05,-0.00016,-5e-05,0.00024,5e-05,2.0
35880.0,4e-05,8e-05,0.0001,-2e-05,-0.00016,-5e-05,0.00024,5e-05,2.0
35881.0,4e-05,8e-05,0.0001,-2e-05,-0.00016,-5e-05,0.00024,5e-05,2.0
35882.0,4e-05,8e-05,0.0001,-2e-05,-0.00016,-5e-05,0.00024,5e-05,2.0
35883.0,4e-05,8e-05,0.0001,-2e-05,-0.00016,-5e-05,0.00024,5e-05,2.0
35884.0,4e-05,8e-05,0.0001,-2e-05,-0.00016,-5e-05,0.00024,5e-05,2.0
35885.0,4e-05,8e-05,0.0001,-2e-05,-0.00016,-5e-05,0.00024,5e-05,2.0
35886.0,4e-05,8e-05,0.0001,-2e-05,-0.00016,-5e-05,0.00024,5e-05,2.0
35890.0,0.00014,4e-05,0.00017,0.00016,9e-05,1e-05,5e-05,6e-05,2.0
35891.0,3e-05,-1e-05,7e-05,0.0001,0.00021,0.00042,0.0001,8e-05,2.0
35892.0,3e-05,-1e-05,7e-05,0.0001,0.00021,0.00042,0.0001,8e-05,2.0
35893.0,3e-05,-1e-05,7e-05,0.0001,0.00021,0.00042,0.0001,8e-05,2.0
35894.0,3e-05,-1e-05,7e-05,0.0001,0.00021,0.00042,0.0001,8e-05,2.0
35895.0,-0.00026,-9e-05,0.0001,1e-05,0.00015,4e-05,5e-05,-0.00011,2.0
35896.0,-0.00026,-9e-05,0.0001,1e-05,0.00015,4e-05,5e-05,-0.00011,2.0
35897.0,-0.00026,-9e-05,0.0001,1e-05,0.00015,4e-05,5e-05,-0.00011,2.0
35898.0,-0.00026,-9e-05,0.0001,1e-05,0.00015,4e-05,5e-05,-0.00011,2.0
35899.0,-0.00026,-9e-05,0.0001,1e-05,0.00015,4e-05,5e-05,-0.00011,2.0
35900.0,-0.00026,-9e-05,0.0001,1e-05,0.00015,4e-05,5e-05,-0.00011,2.0
35901.0,-0.00026,-9e-05,0.0001,1e-05,0.00015,4e-05,5e-05,-0.00011,2.0
35902.0,-0.00026,-9e-05,0.0001,1e-05,0.00015,4e-05,5e-05,-0.00011,2.0
35903.0,-0.00026,-9e-05,0.0001,1e-05,0.00015,4e-05,5e-05,-0.00011,2.0
35904.0,-0.00026,-9e-05,0.0001,1e-05,0.00015,4e-05,5e-05,-0.00011,2.0
35905.0,-0.00026,-9e-05,0.0001,1e-05,0.00015,4e-05,5e-05,-0.00011,2.0
35906.0,-0.00026,-9e-05,0.0001,1e-05,0.00015,4e-05,5e-05,-0.00011,2.0
35907.0,-0.00026,-9e-05,0.0001,1e-05,0.00015,4e-05,5e-05,-0.00011,2.0
35908.0,-0.00026,-9e-05,0.0001,1e-05,0.00015,4e-05,5e-05,-0.00011,2.0
35909.0,-0.00026,-9e-05,0.0001,1e-05,0.00015,4e-05,5e-05,-0.00011,2.0
35910.0,-0.00026,-9e-05,0.0001,1e-05,0.00015,4e-05,5e-05,-0.00011,2.0
35911.0,-0.00017,-8e-05,-0.00016,-0.00018,-0.00013,-7e-05,0.00022,1e-05,2.0
35912.0,-0.00017,-8e-05,-0.00016,-0.00018,-0.00013,-7e-05,0.00022,1e-05,2.0
35913.0,-0.00017,-8e-05,-0.00016,-0.00018,-0.00013,-7e-05,0.00022,1e-05,2.0
35914.0,-0.00017,-8e-05,-0.00016,-0.00018,-0.00013,-7e-05,0.00022,1e-05,2.0
35915.0,-0.00017,-8e-05,-0.00016,-0.00018,-0.00013,-7e-05,0.00022,1e-05,2.0
35916.0,-0.00017,-8e-05,-0.00016,-0.00018,-0.00013,-7e-05,0.00022,1e-05,2.0
35917.0,-0.00017,-8e-05,-0.00016,-0.00018,-0.00013,-7e-05,0.00022,1e-05,2.0
35918.0,-0.00017,-8e-05,-0.00016,-0.00018,-0.00013,-7e-05,0.00022,1e-05,2.0
35919.0,4e-05,-7e-05,-0.00012,-7e-05,-8e-05,-5e-05,-7e-05,7e-05,2.0
35920.0,-0.00018,-4e-05,-8e-05,-2e-05,-7e-05,-0.00017,-0.00032,-0.00017,2.0
35921.0,-0.00018,-4e-05,-8e-05,-2e-05,-7e-05,-0.00017,-0.00032,-0.00017,2.0
35922.0,-0.00018,-4e-05,-8e-05,-2e-05,-7e-05,-0.00017,-0.00032,-0.00017,2.0
35923.0,-0.00018,-4e-05,-8e-05,-2e-05,-7e-05,-0.00017,-0.00032,-0.00017,2.0
35925.0,-0.00018,-4e-05,-8e-05,-2e-05,-7e-05,-0.00017,-0.00032,-0.00017,2.0
35926.0,-0.00018,-4e-05,-8e-05,-2e-05,-7e-05,-0.00017,-0.00032,-0.00017,2.0
35927.0,-0.00018,-4e-05,-8e-05,-2e-05,-7e-05,-0.00017,-0.00032,-0.00017,2.0
35928.0,-0.00018,-4e-05,-8e-05,-2e-05,-7e-05,-0.00017,-0.00032,-0.00017,2.0
35929.0,-0.00018,-4e-05,-8e-05,-2e-05,-7e-05,-0.00017,-0.00032,-0.00017,2.0
35930.0,-0.00018,-4e-05,-8e-05,-2e-05,-7e-05,-0.00017,-0.00032,-0.00017,2.0
35931.0,-0.00018,-4e-05,-8e-05,-2e-05,-7e-05,-0.00017,-0.00032,-0.00017,2.0
35932.0,-0.00018,-4e-05,-8e-05,-2e-05,-7e-05,-0.00017,-0.00032,-0.00017,2.0
35933.0,-0.00018,-4e-05,-8e-05,-2e-05,-7e-05,-0.00017,-0.00032,-0.00017,2.0
35934.0,-0.00018,-4e-05,-8e-05,-2e-05,-7e-05,-0.00017,-0.00032,-0.00017,2.0
35935.0,-0.00018,-4e-05,-8e-05,-2e-05,-7e-05,-0.00017,-0.00032,-0.00017,2.0
35936.0,-0.00018,-4e-05,-8e-05,-2e-05,-7e-05,-0.00017,-0.00032,-0.00017,2.0
35939.0,-0.00018,-4e-05,-8e-05,-2e-05,-7e-05,-0.00017,-0.00032,-0.00017,2.0
35940.0,-0.00018,-4e-05,-8e-05,-2e-05,-7e-05,-0.00017,-0.00032,-0.00017,2.0
35941.0,-2e-05,-5e-05,-2e-05,-8e-05,-0.00017,-0.00014,-8e-05,-4e-05,2.0
35942.0,-2e-05,-5e-05,-2e-05,-8e-05,-0.00017,-0.00014,-8e-05,-4e-05,2.0
35943.0,0.00027,8e-05,2e-05,6e-05,9e-05,0.00017,-5e-05,9e-05,2.0
35944.0,0.00027,8e-05,2e-05,6e-05,9e-05,0.00017,-5e-05,9e-05,2.0
35945.0,0.00027,8e-05,2e-05,6e-05,9e-05,0.00017,-5e-05,9e-05,2.0
35946.0,0.00027,8e-05,2e-05,6e-05,9e-05,0.00017,-5e-05,9e-05,2.0
35947.0,0.00027,8e-05,2e-05,6e-05,9e-05,0.00017,-5e-05,9e-05,2.0
35948.0,0.00027,8e-05,2e-05,6e-05,9e-05,0.00017,-5e-05,9e-05,2.0
35949.0,0.00027,8e-05,2e-05,6e-05,9e-05,0.00017,-5e-05,9e-05,2.0
35950.0,0.00027,8e-05,2e-05,6e-05,9e-05,0.00017,-5e-05,9e-05,2.0
35951.0,0.00027,8e-05,2e-05,6e-05,9e-05,0.00017,-5e-05,9e-05,2.0
35952.0,0.00027,8e-05,2e-05,6e-05,9e-05,0.00017,-5e-05,9e-05,2.0
35953.0,0.00027,8e-05,2e-05,6e-05,9e-05,0.00017,-5e-05,9e-05,2.0
35954.0,0.00027,8e-05,2e-05,6e-05,9e-05,0.00017,-5e-05,9e-05,2.0
35955.0,0.00027,8e-05,2e-05,6e-05,9e-05,0.00017,-5e-05,9e-05,2.0
35956.0,0.00027,8e-05,2e-05,6e-05,9e-05,0.00017,-5e-05,9e-05,2.0
35957.0,0.00027,8e-05,2e-05,6e-05,9e-05,0.00017,-5e-05,9e-05,2.0
35958.0,0.00027,8e-05,2e-05,6e-05,9e-05,0.00017,-5e-05,9e-05,2.0
35959.0,0.00027,8e-05,2e-05,6e-05,9e-05,0.00017,-5e-05,9e-05,2.0
35960.0,0.00027,8e-05,2e-05,6e-05,9e-05,0.00017,-5e-05,9e-05,2.0
35961.0,0.00027,8e-05,2e-05,6e-05,9e-05,0.00017,-5e-05,9e-05,2.0
35962.0,0.00027,8e-05,2e-05,6e-05,9e-05,0.00017,-5e-05,9e-05,2.0
35963.0,0.00027,8e-05,2e-05,6e-05,9e-05,0.00017,-5e-05,9e-05,2.0
35964.0,-0.00026,-0.00015,-0.00038,-5e-05,0.00011,0.00014,-0.00028,-0.00018,2.0
35965.0,4e-05,0.0,-0.00025,-0.00027,-0.00018,-7e-05,9e-05,-1e-05,2.0
35966.0,4e-05,0.0,-0.00025,-0.00027,-0.00018,-7e-05,9e-05,-1e-05,2.0
35967.0,4e-05,0.0,-0.00025,-0.00027,-0.00018,-7e-05,9e-05,-1e-05,2.0
35968.0,4e-05,0.0,-0.00025,-0.00027,-0.00018,-7e-05,9e-05,-1e-05,2.0
35969.0,4e-05,0.0,-0.00025,-0.00027,-0.00018,-7e-05,9e-05,-1e-05,2.0
35970.0,4e-05,0.0,-0.00025,-0.00027,-0.00018,-7e-05,9e-05,-1e-05,2.0
35972.0,4e-05,0.0,-0.00025,-0.00027,-0.00018,-7e-05,9e-05,-1e-05,2.0
35973.0,4e-05,0.0,-0.00025,-0.00027,-0.00018,-7e-05,9e-05,-1e-05,2.0
35974.0,4e-05,0.0,-0.00025,-0.00027,-0.00018,-7e-05,9e-05,-1e-05,2.0
35975.0,4e-05,0.0,-0.00025,-0.00027,-0.00018,-7e-05,9e-05,-1e-05,2.0
35976.0,4e-05,0.0,-0.00025,-0.00027,-0.00018,-7e-05,9e-05,-1e-05,2.0
35977.0,4e-05,0.0,-0.00025,-0.00027,-0.00018,-7e-05,9e-05,-1e-05,2.0
35978.0,4e-05,0.0,-0.00025,-0.00027,-0.00018,-7e-05,9e-05,-1e-05,2.0
35979.0,0.0001,7e-05,6e-05,-5e-05,0.0,-5e-05,0.0,0.00012,2.0
35980.0,0.0001,7e-05,6e-05,-5e-05,0.0,-5e-05,0.0,0.00012,2.0
35981.0,0.0001,7e-05,6e-05,-5e-05,0.0,-5e-05,0.0,0.00012,2.0
35982.0,0.0001,7e-05,6e-05,-5e-05,0.0,-5e-05,0.0,0.00012,2.0
35983.0,0.0001,7e-05,6e-05,-5e-05,0.0,-5e-05,0.0,0.00012,2.0
35984.0,0.0001,7e-05,6e-05,-5e-05,0.0,-5e-05,0.0,0.00012,2.0
35985.0,0.0001,7e-05,6e-05,-5e-05,0.0,-5e-05,0.0,0.00012,2.0
35986.0,0.00017,0.0001,5e-05,-7e-05,-0.0001,4e-05,0.00017,0.00011,2.0
35989.0,-0.00026,-9e-05,-6e-05,1e-05,3e-05,-0.00015,4e-05,-4e-05,2.0
35990.0,-0.00026,-9e-05,-6e-05,1e-05,3e-05,-0.00015,4e-05,-4e-05,2.0
35991.0,-0.00026,-9e-05,-6e-05,1e-05,3e-05,-0.00015,4e-05,-4e-05,2.0
35992.0,-0.00026,-9e-05,-6e-05,1e-05,3e-05,-0.00015,4e-05,-4e-05,2.0
35993.0,-0.00026,-9e-05,-6e-05,1e-05,3e-05,-0.00015,4e-05,-4e-05,2.0
35994.0,-0.00026,-9e-05,-6e-05,1e-05,3e-05,-0.00015,4e-05,-4e-05,2.0
35995.0,-0.00026,-9e-05,-6e-05,1e-05,3e-05,-0.00015,4e-05,-4e-05,2.0
35996.0,-0.00026,-9e-05,-6e-05,1e-05,3e-05,-0.00015,4e-05,-4e-05,2.0
35997.0,-0.00026,-9e-05,-6e-05,1e-05,3e-05,-0.00015,4e-05,-4e-05,2.0
35998.0,-0.00026,-9e-05,-6e-05,1e-05,3e-05,-0.00015,4e-05,-4e-05,2.0
35999.0,-0.00026,-9e-05,-6e-05,1e-05,3e-05,-0.00015,4e-05,-4e-05,2.0
36000.0,-0.00026,-9e-05,-6e-05,1e-05,3e-05,-0.00015,4e-05,-4e-05,2.0
36001.0,-0.00026,-9e-05,-6e-05,1e-05,3e-05,-0.00015,4e-05,-4e-05,2.0
36002.0,7e-05,0.0,0.00016,0.0001,8e-05,0.00013,0.00013,0.0,2.0
36003.0,0.00034,3e-05,0.00024,-3e-05,-7e-05,-8e-05,1e-05,0.0001,2.0
36004.0,0.00034,3e-05,0.00024,-3e-05,-7e-05,-8e-05,1e-05,0.0001,2.0
36005.0,0.00034,3e-05,0.00024,-3e-05,-7e-05,-8e-05,1e-05,0.0001,2.0
36006.0,0.00034,3e-05,0.00024,-3e-05,-7e-05,-8e-05,1e-05,0.0001,2.0
36007.0,0.00034,3e-05,0.00024,-3e-05,-7e-05,-8e-05,1e-05,0.0001,2.0
36008.0,0.00034,3e-05,0.00024,-3e-05,-7e-05,-8e-05,1e-05,0.0001,2.0
36009.0,0.00034,3e-05,0.00024,-3e-05,-7e-05,-8e-05,1e-05,0.0001,2.0
36010.0,0.00034,3e-05,0.00024,-3e-05,-7e-05,-8e-05,1e-05,0.0001,2.0
36011.0,0.00034,3e-05,0.00024,-3e-05,-7e-05,-8e-05,1e-05,0.0001,2.0
36012.0,0.00034,3e-05,0.00024,-3e-05,-7e-05,-8e-05,1e-05,0.0001,2.0
36013.0,0.00034,3e-05,0.00024,-3e-05,-7e-05,-8e-05,1e-05,0.0001,2.0
36014.0,0.00034,3e-05,0.00024,-3e-05,-7e-05,-8e-05,1e-05,0.0001,2.0
36015.0,0.00034,3e-05,0.00024,-3e-05,-7e-05,-8e-05,1e-05,0.0001,2.0
36016.0,0.00034,3e-05,0.00024,-3e-05,-7e-05,-8e-05,1e-05,0.0001,2.0
36018.0,0.00034,3e-05,0.00024,-3e-05,-7e-05,-8e-05,1e-05,0.0001,2.0
36019.0,0.00034,3e-05,0.00024,-3e-05,-7e-05,-8e-05,1e-05,0.0001,2.0
36020.0,0.00034,3e-05,0.00024,-3e-05,-7e-05,-8e-05,1e-05,0.0001,2.0
36021.0,0.00034,3e-05,0.00024,-3e-05,-7e-05,-8e-05,1e-05,0.0001,2.0
36022.0,0.00034,3e-05,0.00024,-3e-05,-7e-05,-8e-05,1e-05,0.0001,2.0
36023.0,0.00034,3e-05,0.00024,-3e-05,-7e-05,-8e-05,1e-05,0.0001,2.0
36024.0,-0.00015,6e-05,-4e-05,7e-05,7e-05,0.00012,-0.0001,-0.00014,2.0
36025.0,-0.00014,-0.0001,3e-05,6e-05,4e-05,-1e-05,-1e-05,0.00017,2.0
36026.0,9e-05,-5e-05,-4e-05,-0.00017,-5e-05,-3e-05,-3e-05,7e-05,2.0
36027.0,9e-05,-5e-05,-4e-05,-0.00017,-5e-05,-3e-05,-3e-05,7e-05,2.0
36028.0,9e-05,-5e-05,-4e-05,-0.00017,-5e-05,-3e-05,-3e-05,7e-05,2.0
36029.0,9e-05,-5e-05,-4e-05,-0.00017,-5e-05,-3e-05,-3e-05,7e-05,2.0
36030.0,9e-05,-5e-05,-4e-05,-0.00017,-5e-05,-3e-05,-3e-05,7e-05,2.0
36031.0,9e-05,-5e-05,-4e-05,-0.00017,-5e-05,-3e-05,-3e-05,7e-05,2.0
36032.0,9e-05,-5e-05,-4e-05,-0.00017,-5e-05,-3e-05,-3e-05,7e-05,2.0
36033.0,9e-05,-5e-05,-4e-05,-0.00017,-5e-05,-3e-05,-3e-05,7e-05,2.0
36034.0,9e-05,-5e-05,-4e-05,-0.00017,-5e-05,-3e-05,-3e-05,7e-05,2.0
36035.0,9e-05,-5e-05,-4e-05,-0.00017,-5e-05,-3e-05,-3e-05,7e-05,2.0
36036.0,9e-05,-5e-05,-4e-05,-0.00017,-5e-05,-3e-05,-3e-05,7e-05,2.0
36039.0,9e-05,-5e-05,-4e-05,-0.00017,-5e-05,-3e-05,-3e-05,7e-05,2.0
36040.0,-0.00011,8e-05,0.00021,0.00017,7e-05,0.00011,-5e-05,-0.00013,2.0
36041.0,-4e-05,-2e-05,-2e-05,0.0001,2e-05,0.00014,0.00018,-3e-05,2.0
36042.0,-4e-05,-2e-05,-2e-05,0.0001,2e-05,0.00014,0.00018,-3e-05,2.0
36043.0,-4e-05,-2e-05,-2e-05,0.0001,2e-05,0.00014,0.00018,-3e-05,2.0
36044.0,-4e-05,-2e-05,-2e-05,0.0001,2e-05,0.00014,0.00018,-3e-05,2.0
36045.0,-4e-05,-2e-05,-2e-05,0.0001,2e-05,0.00014,0.00018,-3e-05,2.0
36046.0,-4e-05,-2e-05,-2e-05,0.0001,2e-05,0.00014,0.00018,-3e-05,2.0
36047.0,-4e-05,-2e-05,-2e-05,0.0001,2e-05,0.00014,0.00018,-3e-05,2.0
36048.0,-4e-05,-2e-05,-2e-05,0.0001,2e-05,0.00014,0.00018,-3e-05,2.0
36049.0,-4e-05,-2e-05,-2e-05,0.0001,2e-05,0.00014,0.00018,-3e-05,2.0
36050.0,-4e-05,-2e-05,-2e-05,0.0001,2e-05,0.00014,0.00018,-3e-05,2.0
36051.0,-4e-05,-2e-05,-2e-05,0.0001,2e-05,0.00014,0.00018,-3e-05,2.0
36052.0,-4e-05,-2e-05,-2e-05,0.0001,2e-05,0.00014,0.00018,-3e-05,2.0
36053.0,-4e-05,-2e-05,-2e-05,0.0001,2e-05,0.00014,0.00018,-3e-05,2.0
36054.0,-4e-05,-2e-05,-2e-05,0.0001,2e-05,0.00014,0.00018,-3e-05,2.0
36055.0,-4e-05,-2e-05,-2e-05,0.0001,2e-05,0.00014,0.00018,-3e-05,2.0
36056.0,-4e-05,-2e-05,-2e-05,0.0001,2e-05,0.00014,0.00018,-3e-05,2.0
36057.0,-4e-05,-2e-05,-2e-05,0.0001,2e-05,0.00014,0.00018,-3e-05,2.0
36058.0,-4e-05,-2e-05,-2e-05,0.0001,2e-05,0.00014,0.00018,-3e-05,2.0
36059.0,-4e-05,-2e-05,-2e-05,0.0001,2e-05,0.00014,0.00018,-3e-05,2.0
36060.0,-4e-05,-2e-05,-2e-05,0.0001,2e-05,0.00014,0.00018,-3e-05,2.0
36061.0,-4e-05,-2e-05,-2e-05,0.0001,2e-05,0.00014,0.00018,-3e-05,2.0
36062.0,0.00024,0.00025,0.00018,-6e-05,-2e-05,3e-05,0.00011,0.0001,2.0
36063.0,0.00024,0.00025,0.00018,-6e-05,-2e-05,3e-05,0.00011,0.0001,2.0
36064.0,0.00024,0.00025,0.00018,-6e-05,-2e-05,3e-05,0.00011,0.0001,2.0
36066.0,0.00024,0.00025,0.00018,-6e-05,-2e-05,3e-05,0.00011,0.0001,2.0
36067.0,0.00024,0.00025,0.00018,-6e-05,-2e-05,3e-05,0.00011,0.0001,2.0
36068.0,0.00024,0.00025,0.00018,-6e-05,-2e-05,3e-05,0.00011,0.0001,2.0
36069.0,0.00024,0.00025,0.00018,-6e-05,-2e-05,3e-05,0.00011,0.0001,2.0
36070.0,0.00024,0.00025,0.00018,-6e-05,-2e-05,3e-05,0.00011,0.0001,2.0
36071.0,0.00024,0.00025,0.00018,-6e-05,-2e-05,3e-05,0.00011,0.0001,2.0
36072.0,0.00024,0.00025,0.00018,-6e-05,-2e-05,3e-05,0.00011,0.0001,2.0
36073.0,0.00024,0.00025,0.00018,-6e-05,-2e-05,3e-05,0.00011,0.0001,2.0
36074.0,0.00024,0.00025,0.00018,-6e-05,-2e-05,3e-05,0.00011,0.0001,2.0
36075.0,0.00024,0.00025,0.00018,-6e-05,-2e-05,3e-05,0.00011,0.0001,2.0
36076.0,8e-05,1e-05,-1e-05,0.00029,0.00012,-0.00012,-0.00034,-5e-05,2.0
36077.0,8e-05,1e-05,-1e-05,0.00029,0.00012,-0.00012,-0.00034,-5e-05,2.0
36078.0,8e-05,1e-05,-1e-05,0.00029,0.00012,-0.00012,-0.00034,-5e-05,2.0
36079.0,8e-05,1e-05,-1e-05,0.00029,0.00012,-0.00012,-0.00034,-5e-05,2.0
36080.0,8e-05,1e-05,-1e-05,0.00029,0.00012,-0.00012,-0.00034,-5e-05,2.0
36081.0,8e-05,1e-05,-1e-05,0.00029,0.00012,-0.00012,-0.00034,-5e-05,2.0
36082.0,8e-05,1e-05,-1e-05,0.00029,0.00012,-0.00012,-0.00034,-5e-05,2.0
36083.0,8e-05,1e-05,-1e-05,0.00029,0.00012,-0.00012,-0.00034,-5e-05,2.0
36084.0,8e-05,1e-05,-1e-05,0.00029,0.00012,-0.00012,-0.00034,-5e-05,2.0
36085.0,8e-05,1e-05,-1e-05,0.00029,0.00012,-0.00012,-0.00034,-5e-05,2.0
36086.0,8e-05,1e-05,-1e-05,0.00029,0.00012,-0.00012,-0.00034,-5e-05,2.0
36089.0,8e-05,1e-05,-1e-05,0.00029,0.00012,-0.00012,-0.00034,-5e-05,2.0
36090.0,-5e-05,-5e-05,0.00027,0.00011,3e-05,-3e-05,4e-05,2e-05,2.0
36091.0,-5e-05,-5e-05,0.00027,0.00011,3e-05,-3e-05,4e-05,2e-05,2.0
36092.0,-5e-05,-5e-05,0.00027,0.00011,3e-05,-3e-05,4e-05,2e-05,2.0
36093.0,-5e-05,-5e-05,0.00027,0.00011,3e-05,-3e-05,4e-05,2e-05,2.0
36094.0,-5e-05,-5e-05,0.00027,0.00011,3e-05,-3e-05,4e-05,2e-05,2.0
36095.0,-5e-05,-5e-05,0.00027,0.00011,3e-05,-3e-05,4e-05,2e-05,2.0
36096.0,-5e-05,-5e-05,0.00027,0.00011,3e-05,-3e-05,4e-05,2e-05,2.0
36097.0,-5e-05,-5e-05,0.00027,0.00011,3e-05,-3e-05,4e-05,2e-05,2.0
36098.0,-5e-05,-5e-05,0.00027,0.00011,3e-05,-3e-05,4e-05,2e-05,2.0
36099.0,-5e-05,-5e-05,0.00027,0.00011,3e-05,-3e-05,4e-05,2e-05,2.0
36100.0,-5e-05,-5e-05,0.00027,0.00011,3e-05,-3e-05,4e-05,2e-05,2.0
36101.0,7e-05,-9e-05,-0.00017,-0.00017,-1e-05,0.00026,0.00012,0.00012,2.0
36102.0,5e-05,-5e-05,-0.0001,-8e-05,-0.00013,-0.00022,-0.00023,-3e-05,2.0
36103.0,5e-05,-5e-05,-0.0001,-8e-05,-0.00013,-0.00022,-0.00023,-3e-05,2.0
36104.0,5e-05,-5e-05,-0.0001,-8e-05,-0.00013,-0.00022,-0.00023,-3e-05,2.0
36105.0,5e-05,-5e-05,-0.0001,-8e-05,-0.00013,-0.00022,-0.00023,-3e-05,2.0
36106.0,-0.00017,2e-05,3e-05,0.00014,0.00013,1e-05,-5e-05,-1e-05,2.0
36107.0,-0.00017,2e-05,3e-05,0.00014,0.00013,1e-05,-5e-05,-1e-05,2.0
36108.0,-0.00017,2e-05,3e-05,0.00014,0.00013,1e-05,-5e-05,-1e-05,2.0
36109.0,-0.00017,2e-05,3e-05,0.00014,0.00013,1e-05,-5e-05,-1e-05,2.0
36110.0,-0.00017,2e-05,3e-05,0.00014,0.00013,1e-05,-5e-05,-1e-05,2.0
36111.0,-0.00017,2e-05,3e-05,0.00014,0.00013,1e-05,-5e-05,-1e-05,2.0
36112.0,-0.00017,2e-05,3e-05,0.00014,0.00013,1e-05,-5e-05,-1e-05,2.0
36113.0,-0.00017,2e-05,3e-05,0.00014,0.00013,1e-05,-5e-05,-1e-05,2.0
36114.0,-0.00017,2e-05,3e-05,0.00014,0.00013,1e-05,-5e-05,-1e-05,2.0
36115.0,-0.00017,2e-05,3e-05,0.00014,0.00013,1e-05,-5e-05,-1e-05,2.0
36116.0,-0.00017,2e-05,3e-05,0.00014,0.00013,1e-05,-5e-05,-1e-05,2.0
36117.0,-0.00017,2e-05,3e-05,0.00014,0.00013,1e-05,-5e-05,-1e-05,2.0
36118.0,-0.00017,2e-05,3e-05,0.00014,0.00013,1e-05,-5e-05,-1e-05,2.0
36120.0,-0.00017,2e-05,3e-05,0.00014,0.00013,1e-05,-5e-05,-1e-05,2.0
36121.0,-0.00017,2e-05,3e-05,0.00014,0.00013,1e-05,-5e-05,-1e-05,2.0
36122.0,6e-05,7e-05,0.00029,3e-05,-6e-05,-0.00024,-0.0003,0.0,2.0
36123.0,-5e-05,-3e-05,-3e-05,-1e-05,-7e-05,7e-05,9e-05,-3e-05,2.0
36124.0,-5e-05,-3e-05,-3e-05,-1e-05,-7e-05,7e-05,9e-05,-3e-05,2.0
36125.0,-5e-05,-3e-05,-3e-05,-1e-05,-7e-05,7e-05,9e-05,-3e-05,2.0
36126.0,-5e-05,-3e-05,-3e-05,-1e-05,-7e-05,7e-05,9e-05,-3e-05,2.0
36127.0,-5e-05,-3e-05,-3e-05,-1e-05,-7e-05,7e-05,9e-05,-3e-05,2.0
36128.0,-5e-05,-3e-05,-3e-05,-1e-05,-7e-05,7e-05,9e-05,-3e-05,2.0
36129.0,-5e-05,-3e-05,-3e-05,-1e-05,-7e-05,7e-05,9e-05,-3e-05,2.0
36130.0,-5e-05,-3e-05,-3e-05,-1e-05,-7e-05,7e-05,9e-05,-3e-05,2.0
36131.0,-5e-05,-3e-05,-3e-05,-1e-05,-7e-05,7e-05,9e-05,-3e-05,2.0
36132.0,-5e-05,-3e-05,-3e-05,-1e-05,-7e-05,7e-05,9e-05,-3e-05,2.0
36133.0,-5e-05,-3e-05,-3e-05,-1e-05,-7e-05,7e-05,9e-05,-3e-05,2.0
36134.0,-5e-05,-3e-05,-3e-05,-1e-05,-7e-05,7e-05,9e-05,-3e-05,2.0
36135.0,-5e-05,-3e-05,-3e-05,-1e-05,-7e-05,7e-05,9e-05,-3e-05,2.0
36136.0,-5e-05,-3e-05,-3e-05,-1e-05,-7e-05,7e-05,9e-05,-3e-05,2.0
36139.0,-5e-05,-3e-05,-3e-05,-1e-05,-7e-05,7e-05,9e-05,-3e-05,2.0
36140.0,-5e-05,-3e-05,-3e-05,-1e-05,-7e-05,7e-05,9e-05,-3e-05,2.0
36141.0,-5e-05,-3e-05,-3e-05,-1e-05,-7e-05,7e-05,9e-05,-3e-05,2.0
36142.0,-5e-05,-3e-05,-3e-05,-1e-05,-7e-05,7e-05,9e-05,-3e-05,2.0
36143.0,-5e-05,-3e-05,-3e-05,-1e-05,-7e-05,7e-05,9e-05,-3e-05,2.0
36144.0,-5e-05,-3e-05,-3e-05,-1e-05,-7e-05,7e-05,9e-05,-3e-05,2.0
36145.0,-5e-05,-3e-05,-3e-05,-1e-05,-7e-05,7e-05,9e-05,-3e-05,2.0
36146.0,-5e-05,-3e-05,-3e-05,-1e-05,-7e-05,7e-05,9e-05,-3e-05,2.0
36147.0,-5e-05,-3e-05,-3e-05,-1e-05,-7e-05,7e-05,9e-05,-3e-05,2.0
36148.0,-5e-05,-3e-05,-3e-05,-1e-05,-7e-05,7e-05,9e-05,-3e-05,2.0
36149.0,-5e-05,-3e-05,-3e-05,-1e-05,-7e-05,7e-05,9e-05,-3e-05,2.0
36150.0,-5e-05,-3e-05,-3e-05,-1e-05,-7e-05,7e-05,9e-05,-3e-05,2.0
36151.0,-5e-05,-3e-05,-3e-05,-1e-05,-7e-05,7e-05,9e-05,-3e-05,2.0
36152.0,-1e-05,0.0,-0.00016,-6e-05,-0.0001,-0.00016,8e-05,-9e-05,2.0
36153.0,-1e-05,0.0,-0.00016,-6e-05,-0.0001,-0.00016,8e-05,-9e-05,2.0
36154.0,-1e-05,0.0,-0.00016,-6e-05,-0.0001,-0.00016,8e-05,-9e-05,2.0
36155.0,-1e-05,0.0,-0.00016,-6e-05,-0.0001,-0.00016,8e-05,-9e-05,2.0
36156.0,-1e-05,0.0,-0.00016,-6e-05,-0.0001,-0.00016,8e-05,-9e-05,2.0
36157.0,-1e-05,0.0,-0.00016,-6e-05,-0.0001,-0.00016,8e-05,-9e-05,2.0
36158.0,-1e-05,0.0,-0.00016,-6e-05,-0.0001,-0.00016,8e-05,-9e-05,2.0
36159.0,-1e-05,0.0,-0.00016,-6e-05,-0.0001,-0.00016,8e-05,-9e-05,2.0
36161.0,-1e-05,0.0,-0.00016,-6e-05,-0.0001,-0.00016,8e-05,-9e-05,2.0
36162.0,-1e-05,0.0,-0.00016,-6e-05,-0.0001,-0.00016,8e-05,-9e-05,2.0
36163.0,-1e-05,0.0,-0.00016,-6e-05,-0.0001,-0.00016,8e-05,-9e-05,2.0
36164.0,-1e-05,0.0,-0.00016,-6e-05,-0.0001,-0.00016,8e-05,-9e-05,2.0
36165.0,-1e-05,0.0,-0.00016,-6e-05,-0.0001,-0.00016,8e-05,-9e-05,2.0
36166.0,-1e-05,0.0,-0.00016,-6e-05,-0.0001,-0.00016,8e-05,-9e-05,2.0
36167.0,-1e-05,0.0,-0.00016,-6e-05,-0.0001,-0.00016,8e-05,-9e-05,2.0
36168.0,0.0,0.0,7e-05,4e-05,0.00012,-4e-05,-5e-05,6e-05,2.0
36169.0,8e-05,-1e-05,-3e-05,-0.00013,-0.00014,5e-05,0.00019,0.00024,2.0
36170.0,8e-05,8e-05,0.00013,6e-05,-7e-05,-0.00012,0.0,-2e-05,2.0
36171.0,8e-05,8e-05,0.00013,6e-05,-7e-05,-0.00012,0.0,-2e-05,2.0
36172.0,8e-05,8e-05,0.00013,6e-05,-7e-05,-0.00012,0.0,-2e-05,2.0
36173.0,8e-05,8e-05,0.00013,6e-05,-7e-05,-0.00012,0.0,-2e-05,2.0
36174.0,8e-05,8e-05,0.00013,6e-05,-7e-05,-0.00012,0.0,-2e-05,2.0
36175.0,8e-05,8e-05,0.00013,6e-05,-7e-05,-0.00012,0.0,-2e-05,2.0
36176.0,8e-05,8e-05,0.00013,6e-05,-7e-05,-0.00012,0.0,-2e-05,2.0
36177.0,8e-05,8e-05,0.00013,6e-05,-7e-05,-0.00012,0.0,-2e-05,2.0
36178.0,8e-05,8e-05,0.00013,6e-05,-7e-05,-0.00012,0.0,-2e-05,2.0
36179.0,8e-05,8e-05,0.00013,6e-05,-7e-05,-0.00012,0.0,-2e-05,2.0
36180.0,8e-05,8e-05,0.00013,6e-05,-7e-05,-0.00012,0.0,-2e-05,2.0
36181.0,8e-05,8e-05,0.00013,6e-05,-7e-05,-0.00012,0.0,-2e-05,2.0
36182.0,8e-05,8e-05,0.00013,6e-05,-7e-05,-0.00012,0.0,-2e-05,2.0
36183.0,8e-05,8e-05,0.00013,6e-05,-7e-05,-0.00012,0.0,-2e-05,2.0
36184.0,8e-05,8e-05,0.00013,6e-05,-7e-05,-0.00012,0.0,-2e-05,2.0
36185.0,8e-05,8e-05,0.00013,6e-05,-7e-05,-0.00012,0.0,-2e-05,2.0
36186.0,8e-05,8e-05,0.00013,6e-05,-7e-05,-0.00012,0.0,-2e-05,2.0
36189.0,8e-05,8e-05,0.00013,6e-05,-7e-05,-0.00012,0.0,-2e-05,2.0
36190.0,8e-05,8e-05,0.00013,6e-05,-7e-05,-0.00012,0.0,-2e-05,2.0
36191.0,4e-05,-0.00012,-9e-05,2e-05,0.00014,2e-05,-6e-05,-4e-05,2.0
36192.0,6e-05,-1e-05,-8e-05,-5e-05,2e-05,3e-05,6e-05,-6e-05,2.0
36193.0,6e-05,-1e-05,-8e-05,-5e-05,2e-05,3e-05,6e-05,-6e-05,2.0
36194.0,6e-05,-1e-05,-8e-05,-5e-05,2e-05,3e-05,6e-05,-6e-05,2.0
36195.0,6e-05,-1e-05,-8e-05,-5e-05,2e-05,3e-05,6e-05,-6e-05,2.0
36196.0,6e-05,-1e-05,-8e-05,-5e-05,2e-05,3e-05,6e-05,-6e-05,2.0
36197.0,6e-05,-1e-05,-8e-05,-5e-05,2e-05,3e-05,6e-05,-6e-05,2.0
36198.0,6e-05,-1e-05,-8e-05,-5e-05,2e-05,3e-05,6e-05,-6e-05,2.0
36199.0,6e-05,-1e-05,-8e-05,-5e-05,2e-05,3e-05,6e-05,-6e-05,2.0
36200.0,6e-05,-1e-05,-8e-05,-5e-05,2e-05,3e-05,6e-05,-6e-05,2.0
36201.0,6e-05,-1e-05,-8e-05,-5e-05,2e-05,3e-05,6e-05,-6e-05,2.0
36202.0,6e-05,-1e-05,-8e-05,-5e-05,2e-05,3e-05,6e-05,-6e-05,2.0
36203.0,6e-05,-1e-05,-8e-05,-5e-05,2e-05,3e-05,6e-05,-6e-05,2.0
36204.0,6e-05,-1e-05,-8e-05,-5e-05,2e-05,3e-05,6e-05,-6e-05,2.0
36205.0,6e-05,-1e-05,-8e-05,-5e-05,2e-05,3e-05,6e-05,-6e-05,2.0
36207.0,6e-05,-1e-05,-8e-05,-5e-05,2e-05,3e-05,6e-05,-6e-05,2.0
36208.0,6e-05,-1e-05,-8e-05,-5e-05,2e-05,3e-05,6e-05,-6e-05,2.0
36209.0,6e-05,-1e-05,-8e-05,-5e-05,2e-05,3e-05,6e-05,-6e-05,2.0
36210.0,6e-05,-1e-05,-8e-05,-5e-05,2e-05,3e-05,6e-05,-6e-05,2.0
36211.0,6e-05,-1e-05,-8e-05,-5e-05,2e-05,3e-05,6e-05,-6e-05,2.0
36212.0,6e-05,-1e-05,-8e-05,-5e-05,2e-05,3e-05,6e-05,-6e-05,2.0
36213.0,6e-05,-1e-05,-8e-05,-5e-05,2e-05,3e-05,6e-05,-6e-05,2.0
36214.0,6e-05,-1e-05,-8e-05,-5e-05,2e-05,3e-05,6e-05,-6e-05,2.0
36215.0,6e-05,-1e-05,-8e-05,-5e-05,2e-05,3e-05,6e-05,-6e-05,2.0
36216.0,6e-05,-1e-05,-8e-05,-5e-05,2e-05,3e-05,6e-05,-6e-05,2.0
36217.0,6e-05,-1e-05,-8e-05,-5e-05,2e-05,3e-05,6e-05,-6e-05,2.0
36218.0,6e-05,-1e-05,-8e-05,-5e-05,2e-05,3e-05,6e-05,-6e-05,2.0
36219.0,6e-05,-1e-05,-8e-05,-5e-05,2e-05,3e-05,6e-05,-6e-05,2.0
36220.0,6e-05,-1e-05,-8e-05,-5e-05,2e-05,3e-05,6e-05,-6e-05,2.0
36221.0,-4e-05,-4e-05,-0.00011,-9e-05,-7e-05,8e-05,0.0001,9e-05,2.0
36222.0,5e-05,0.0001,0.00013,2e-05,-4e-05,-9e-05,-0.00013,-2e-05,2.0
36223.0,5e-05,0.0001,0.00013,2e-05,-4e-05,-9e-05,-0.00013,-2e-05,2.0
36224.0,5e-05,0.0001,0.00013,2e-05,-4e-05,-9e-05,-0.00013,-2e-05,2.0
36225.0,5e-05,0.0001,0.00013,2e-05,-4e-05,-9e-05,-0.00013,-2e-05,2.0
36226.0,5e-05,0.0001,0.00013,2e-05,-4e-05,-9e-05,-0.00013,-2e-05,2.0
36227.0,5e-05,0.0001,0.00013,2e-05,-4e-05,-9e-05,-0.00013,-2e-05,2.0
36228.0,5e-05,0.0001,0.00013,2e-05,-4e-05,-9e-05,-0.00013,-2e-05,2.0
36229.0,5e-05,0.0001,0.00013,2e-05,-4e-05,-9e-05,-0.00013,-2e-05,2.0
36230.0,5e-05,0.0001,0.00013,2e-05,-4e-05,-9e-05,-0.00013,-2e-05,2.0
36231.0,5e-05,0.0001,0.00013,2e-05,-4e-05,-9e-05,-0.00013,-2e-05,2.0
36232.0,5e-05,0.0001,0.00013,2e-05,-4e-05,-9e-05,-0.00013,-2e-05,2.0
36233.0,5e-05,0.0001,0.00013,2e-05,-4e-05,-9e-05,-0.00013,-2e-05,2.0
36234.0,5e-05,0.0001,0.00013,2e-05,-4e-05,-9e-05,-0.00013,-2e-05,2.0
36235.0,5e-05,0.0001,0.00013,2e-05,-4e-05,-9e-05,-0.00013,-2e-05,2.0
36236.0,5e-05,0.0001,0.00013,2e-05,-4e-05,-9e-05,-0.00013,-2e-05,2.0
36239.0,5e-05,0.0001,0.00013,2e-05,-4e-05,-9e-05,-0.00013,-2e-05,2.0
36240.0,-0.00011,-7e-05,-8e-05,-0.0001,-2e-05,-5e-05,-0.00018,-4e-05,2.0
36241.0,-0.00011,-7e-05,-8e-05,-0.0001,-2e-05,-5e-05,-0.00018,-4e-05,2.0
36242.0,-0.00011,-7e-05,-8e-05,-0.0001,-2e-05,-5e-05,-0.00018,-4e-05,2.0
36243.0,-0.00011,-7e-05,-8e-05,-0.0001,-2e-05,-5e-05,-0.00018,-4e-05,2.0
36244.0,-0.00011,-7e-05,-8e-05,-0.0001,-2e-05,-5e-05,-0.00018,-4e-05,2.0
36245.0,-0.00011,-7e-05,-8e-05,-0.0001,-2e-05,-5e-05,-0.00018,-4e-05,2.0
36246.0,-0.00011,-7e-05,-8e-05,-0.0001,-2e-05,-5e-05,-0.00018,-4e-05,2.0
36247.0,-0.00011,-7e-05,-8e-05,-0.0001,-2e-05,-5e-05,-0.00018,-4e-05,2.0
36248.0,-0.00011,-7e-05,-8e-05,-0.0001,-2e-05,-5e-05,-0.00018,-4e-05,2.0
36249.0,-0.00011,-7e-05,-8e-05,-0.0001,-2e-05,-5e-05,-0.00018,-4e-05,2.0
36250.0,-0.00011,-7e-05,-8e-05,-0.0001,-2e-05,-5e-05,-0.00018,-4e-05,2.0
36251.0,-0.00011,-7e-05,-8e-05,-0.0001,-2e-05,-5e-05,-0.00018,-4e-05,2.0
36252.0,-0.00011,-7e-05,-8e-05,-0.0001,-2e-05,-5e-05,-0.00018,-4e-05,2.0
36253.0,-0.00011,-7e-05,-8e-05,-0.0001,-2e-05,-5e-05,-0.00018,-4e-05,2.0
36254.0,-0.00011,-7e-05,-8e-05,-0.0001,-2e-05,-5e-05,-0.00018,-4e-05,2.0
36255.0,-0.00011,-7e-05,-8e-05,-0.0001,-2e-05,-5e-05,-0.00018,-4e-05,2.0
36256.0,-0.00011,-7e-05,-8e-05,-0.0001,-2e-05,-5e-05,-0.00018,-4e-05,2.0
36257.0,-0.00011,-7e-05,-8e-05,-0.0001,-2e-05,-5e-05,-0.00018,-4e-05,2.0
36258.0,-0.00011,-7e-05,-8e-05,-0.0001,-2e-05,-5e-05,-0.00018,-4e-05,2.0
36259.0,-0.00011,-7e-05,-8e-05,-0.0001,-2e-05,-5e-05,-0.00018,-4e-05,2.0
36260.0,-0.00011,-7e-05,-8e-05,-0.0001,-2e-05,-5e-05,-0.00018,-4e-05,2.0
36261.0,-0.00011,-7e-05,-8e-05,-0.0001,-2e-05,-5e-05,-0.00018,-4e-05,2.0
36262.0,-0.00011,-7e-05,-8e-05,-0.0001,-2e-05,-5e-05,-0.00018,-4e-05,2.0
36263.0,-0.00011,-7e-05,-8e-05,-0.0001,-2e-05,-5e-05,-0.00018,-4e-05,2.0
36264.0,-0.00011,-7e-05,-8e-05,-0.0001,-2e-05,-5e-05,-0.00018,-4e-05,2.0
36265.0,-0.00011,-7e-05,-8e-05,-0.0001,-2e-05,-5e-05,-0.00018,-4e-05,2.0
36266.0,-0.00011,-7e-05,-8e-05,-0.0001,-2e-05,-5e-05,-0.00018,-4e-05,2.0
36267.0,-0.00011,-7e-05,-8e-05,-0.0001,-2e-05,-5e-05,-0.00018,-4e-05,2.0
36268.0,-0.00011,-7e-05,-8e-05,-0.0001,-2e-05,-5e-05,-0.00018,-4e-05,2.0
36269.0,-0.00011,-7e-05,-8e-05,-0.0001,-2e-05,-5e-05,-0.00018,-4e-05,2.0
36270.0,-0.00011,-7e-05,-8e-05,-0.0001,-2e-05,-5e-05,-0.00018,-4e-05,2.0
36271.0,-0.00011,-7e-05,-8e-05,-0.0001,-2e-05,-5e-05,-0.00018,-4e-05,2.0
36272.0,-0.00011,-7e-05,-8e-05,-0.0001,-2e-05,-5e-05,-0.00018,-4e-05,2.0
36273.0,-0.00011,-7e-05,-8e-05,-0.0001,-2e-05,-5e-05,-0.00018,-4e-05,2.0
36274.0,-0.00011,-7e-05,-8e-05,-0.0001,-2e-05,-5e-05,-0.00018,-4e-05,2.0
36275.0,-0.00011,-7e-05,-8e-05,-0.0001,-2e-05,-5e-05,-0.00018,-4e-05,2.0
36276.0,-0.00011,-7e-05,-8e-05,-0.0001,-2e-05,-5e-05,-0.00018,-4e-05,2.0
36277.0,-0.00011,-7e-05,-8e-05,-0.0001,-2e-05,-5e-05,-0.00018,-4e-05,2.0
36278.0,-0.00011,-7e-05,-8e-05,-0.0001,-2e-05,-5e-05,-0.00018,-4e-05,2.0
36279.0,-0.00011,-7e-05,-8e-05,-0.0001,-2e-05,-5e-05,-0.00018,-4e-05,2.0
36280.0,-0.00011,-7e-05,-8e-05,-0.0001,-2e-05,-5e-05,-0.00018,-4e-05,2.0
36281.0,-0.00011,-7e-05,-8e-05,-0.0001,-2e-05,-5e-05,-0.00018,-4e-05,2.0
36282.0,-0.00011,-7e-05,-8e-05,-0.0001,-2e-05,-5e-05,-0.00018,-4e-05,2.0
36283.0,-0.00011,-7e-05,-8e-05,-0.0001,-2e-05,-5e-05,-0.00018,-4e-05,2.0
36284.0,-0.00011,-7e-05,-8e-05,-0.0001,-2e-05,-5e-05,-0.00018,-4e-05,2.0
36285.0,-0.00011,-7e-05,-8e-05,-0.0001,-2e-05,-5e-05,-0.00018,-4e-05,2.0
36286.0,-0.00011,-7e-05,-8e-05,-0.0001,-2e-05,-5e-05,-0.00018,-4e-05,2.0
36288.0,-0.00011,-7e-05,-8e-05,-0.0001,-2e-05,-5e-05,-0.00018,-4e-05,2.0
36290.0,-0.00011,-7e-05,-8e-05,-0.0001,-2e-05,-5e-05,-0.00018,-4e-05,2.0
36291.0,-0.00011,-7e-05,-8e-05,-0.0001,-2e-05,-5e-05,-0.00018,-4e-05,2.0
36292.0,-0.00011,-7e-05,-8e-05,-0.0001,-2e-05,-5e-05,-0.00018,-4e-05,2.0
36293.0,-0.00011,-7e-05,-8e-05,-0.0001,-2e-05,-5e-05,-0.00018,-4e-05,2.0
36294.0,-0.00011,-7e-05,-8e-05,-0.0001,-2e-05,-5e-05,-0.00018,-4e-05,2.0
36295.0,2e-05,-0.00012,-0.00022,-0.00016,-0.00012,-0.00012,-0.00014,-2e-05,2.0
36296.0,2e-05,-0.00012,-0.00022,-0.00016,-0.00012,-0.00012,-0.00014,-2e-05,2.0
36297.0,-6e-05,-6e-05,2e-05,2e-05,-1e-05,-8e-05,-5e-05,-7e-05,2.0
36298.0,-0.00025,-0.00015,-0.00032,-6e-05,-9e-05,-7e-05,-0.00011,-0.00024,2.0
36299.0,-0.00025,-0.00015,-0.00032,-6e-05,-9e-05,-7e-05,-0.00011,-0.00024,2.0
36300.0,-0.00025,-0.00015,-0.00032,-6e-05,-9e-05,-7e-05,-0.00011,-0.00024,2.0
36301.0,-0.00025,-0.00015,-0.00032,-6e-05,-9e-05,-7e-05,-0.00011,-0.00024,2.0
36302.0,-0.00025,-0.00015,-0.00032,-6e-05,-9e-05,-7e-05,-0.00011,-0.00024,2.0
36303.0,-0.00025,-0.00015,-0.00032,-6e-05,-9e-05,-7e-05,-0.00011,-0.00024,2.0
36304.0,-0.00025,-0.00015,-0.00032,-6e-05,-9e-05,-7e-05,-0.00011,-0.00024,2.0
36305.0,-0.00025,-0.00015,-0.00032,-6e-05,-9e-05,-7e-05,-0.00011,-0.00024,2.0
36306.0,-0.00025,-0.00015,-0.00032,-6e-05,-9e-05,-7e-05,-0.00011,-0.00024,2.0
36307.0,-0.00025,-0.00015,-0.00032,-6e-05,-9e-05,-7e-05,-0.00011,-0.00024,2.0
36308.0,-0.00025,-0.00015,-0.00032,-6e-05,-9e-05,-7e-05,-0.00011,-0.00024,2.0
36309.0,-0.00025,-0.00015,-0.00032,-6e-05,-9e-05,-7e-05,-0.00011,-0.00024,2.0
36310.0,-0.00025,-0.00015,-0.00032,-6e-05,-9e-05,-7e-05,-0.00011,-0.00024,2.0
36311.0,-0.00025,-0.00015,-0.00032,-6e-05,-9e-05,-7e-05,-0.00011,-0.00024,2.0
36312.0,-0.00025,-0.00015,-0.00032,-6e-05,-9e-05,-7e-05,-0.00011,-0.00024,2.0
36313.0,-0.00025,-0.00015,-0.00032,-6e-05,-9e-05,-7e-05,-0.00011,-0.00024,2.0
36314.0,-0.00025,-0.00015,-0.00032,-6e-05,-9e-05,-7e-05,-0.00011,-0.00024,2.0
36315.0,-0.00025,-0.00015,-0.00032,-6e-05,-9e-05,-7e-05,-0.00011,-0.00024,2.0
36316.0,-0.00025,-0.00015,-0.00032,-6e-05,-9e-05,-7e-05,-0.00011,-0.00024,2.0
36317.0,-0.00025,-0.00015,-0.00032,-6e-05,-9e-05,-7e-05,-0.00011,-0.00024,2.0
36318.0,1e-05,0.00012,6e-05,6e-05,-1e-05,-2e-05,-0.00024,-0.00019,2.0
36319.0,-0.00019,1e-05,5e-05,-3e-05,-9e-05,-0.00013,-8e-05,-6e-05,2.0
36320.0,7e-05,6e-05,4e-05,-2e-05,-2e-05,-5e-05,2e-05,4e-05,2.0
36321.0,7e-05,6e-05,4e-05,-2e-05,-2e-05,-5e-05,2e-05,4e-05,2.0
36322.0,7e-05,6e-05,4e-05,-2e-05,-2e-05,-5e-05,2e-05,4e-05,2.0
36323.0,7e-05,6e-05,4e-05,-2e-05,-2e-05,-5e-05,2e-05,4e-05,2.0
36324.0,7e-05,6e-05,4e-05,-2e-05,-2e-05,-5e-05,2e-05,4e-05,2.0
36325.0,7e-05,6e-05,4e-05,-2e-05,-2e-05,-5e-05,2e-05,4e-05,2.0
36326.0,7e-05,6e-05,4e-05,-2e-05,-2e-05,-5e-05,2e-05,4e-05,2.0
36327.0,7e-05,6e-05,4e-05,-2e-05,-2e-05,-5e-05,2e-05,4e-05,2.0
36328.0,7e-05,6e-05,4e-05,-2e-05,-2e-05,-5e-05,2e-05,4e-05,2.0
36329.0,7e-05,6e-05,4e-05,-2e-05,-2e-05,-5e-05,2e-05,4e-05,2.0
36330.0,7e-05,6e-05,4e-05,-2e-05,-2e-05,-5e-05,2e-05,4e-05,2.0
36331.0,7e-05,6e-05,4e-05,-2e-05,-2e-05,-5e-05,2e-05,4e-05,2.0
36332.0,7e-05,6e-05,4e-05,-2e-05,-2e-05,-5e-05,2e-05,4e-05,2.0
36333.0,7e-05,6e-05,4e-05,-2e-05,-2e-05,-5e-05,2e-05,4e-05,2.0
36334.0,7e-05,6e-05,4e-05,-2e-05,-2e-05,-5e-05,2e-05,4e-05,2.0
36335.0,7e-05,6e-05,4e-05,-2e-05,-2e-05,-5e-05,2e-05,4e-05,2.0
36336.0,7e-05,6e-05,4e-05,-2e-05,-2e-05,-5e-05,2e-05,4e-05,2.0
36339.0,7e-05,6e-05,4e-05,-2e-05,-2e-05,-5e-05,2e-05,4e-05,2.0
36340.0,7e-05,6e-05,4e-05,-2e-05,-2e-05,-5e-05,2e-05,4e-05,2.0
36341.0,7e-05,6e-05,4e-05,-2e-05,-2e-05,-5e-05,2e-05,4e-05,2.0
36342.0,7e-05,6e-05,4e-05,-2e-05,-2e-05,-5e-05,2e-05,4e-05,2.0
36343.0,7e-05,6e-05,4e-05,-2e-05,-2e-05,-5e-05,2e-05,4e-05,2.0
36344.0,7e-05,6e-05,4e-05,-2e-05,-2e-05,-5e-05,2e-05,4e-05,2.0
36345.0,7e-05,6e-05,4e-05,-2e-05,-2e-05,-5e-05,2e-05,4e-05,2.0
36346.0,7e-05,6e-05,4e-05,-2e-05,-2e-05,-5e-05,2e-05,4e-05,2.0
36347.0,7e-05,6e-05,4e-05,-2e-05,-2e-05,-5e-05,2e-05,4e-05,2.0
36348.0,7e-05,6e-05,4e-05,-2e-05,-2e-05,-5e-05,2e-05,4e-05,2.0
36349.0,7e-05,6e-05,4e-05,-2e-05,-2e-05,-5e-05,2e-05,4e-05,2.0
36350.0,7e-05,6e-05,4e-05,-2e-05,-2e-05,-5e-05,2e-05,4e-05,2.0
36351.0,7e-05,6e-05,4e-05,-2e-05,-2e-05,-5e-05,2e-05,4e-05,2.0
36352.0,7e-05,6e-05,4e-05,-2e-05,-2e-05,-5e-05,2e-05,4e-05,2.0
36353.0,7e-05,6e-05,4e-05,-2e-05,-2e-05,-5e-05,2e-05,4e-05,2.0
36354.0,7e-05,6e-05,4e-05,-2e-05,-2e-05,-5e-05,2e-05,4e-05,2.0
36355.0,7e-05,6e-05,4e-05,-2e-05,-2e-05,-5e-05,2e-05,4e-05,2.0
36356.0,7e-05,6e-05,4e-05,-2e-05,-2e-05,-5e-05,2e-05,4e-05,2.0
36357.0,7e-05,6e-05,4e-05,-2e-05,-2e-05,-5e-05,2e-05,4e-05,2.0
36358.0,7e-05,6e-05,4e-05,-2e-05,-2e-05,-5e-05,2e-05,4e-05,2.0
36359.0,7e-05,6e-05,4e-05,-2e-05,-2e-05,-5e-05,2e-05,4e-05,2.0
36360.0,7e-05,6e-05,4e-05,-2e-05,-2e-05,-5e-05,2e-05,4e-05,2.0
36361.0,7e-05,6e-05,4e-05,-2e-05,-2e-05,-5e-05,2e-05,4e-05,2.0
36362.0,7e-05,6e-05,4e-05,-2e-05,-2e-05,-5e-05,2e-05,4e-05,2.0
36363.0,7e-05,6e-05,4e-05,-2e-05,-2e-05,-5e-05,2e-05,4e-05,2.0
36364.0,7e-05,6e-05,4e-05,-2e-05,-2e-05,-5e-05,2e-05,4e-05,2.0
36365.0,7e-05,6e-05,4e-05,-2e-05,-2e-05,-5e-05,2e-05,4e-05,2.0
36366.0,7e-05,6e-05,4e-05,-2e-05,-2e-05,-5e-05,2e-05,4e-05,2.0
36367.0,7e-05,6e-05,4e-05,-2e-05,-2e-05,-5e-05,2e-05,4e-05,2.0
36368.0,7e-05,6e-05,4e-05,-2e-05,-2e-05,-5e-05,2e-05,4e-05,2.0
36369.0,7e-05,6e-05,4e-05,-2e-05,-2e-05,-5e-05,2e-05,4e-05,2.0
36370.0,-1e-05,-0.00018,-0.00018,-0.00021,-2e-05,0.0002,0.00024,7e-05,2.0
36371.0,-1e-05,-0.00018,-0.00018,-0.00021,-2e-05,0.0002,0.00024,7e-05,2.0
36372.0,-4e-05,-2e-05,5e-05,0.00013,0.00013,0.0,7e-05,3e-05,2.0
36373.0,6e-05,0.00013,0.00023,4e-05,0.0,-6e-05,-1e-05,3e-05,2.0
36374.0,6e-05,0.00013,0.00023,4e-05,0.0,-6e-05,-1e-05,3e-05,2.0
36375.0,6e-05,0.00013,0.00023,4e-05,0.0,-6e-05,-1e-05,3e-05,2.0
36376.0,6e-05,0.00013,0.00023,4e-05,0.0,-6e-05,-1e-05,3e-05,2.0
36377.0,6e-05,0.00013,0.00023,4e-05,0.0,-6e-05,-1e-05,3e-05,2.0
36378.0,6e-05,0.00013,0.00023,4e-05,0.0,-6e-05,-1e-05,3e-05,2.0
36379.0,6e-05,0.00013,0.00023,4e-05,0.0,-6e-05,-1e-05,3e-05,2.0
36380.0,6e-05,0.00013,0.00023,4e-05,0.0,-6e-05,-1e-05,3e-05,2.0
36381.0,6e-05,0.00013,0.00023,4e-05,0.0,-6e-05,-1e-05,3e-05,2.0
36382.0,6e-05,0.00013,0.00023,4e-05,0.0,-6e-05,-1e-05,3e-05,2.0
36383.0,6e-05,0.00013,0.00023,4e-05,0.0,-6e-05,-1e-05,3e-05,2.0
36384.0,6e-05,0.00013,0.00023,4e-05,0.0,-6e-05,-1e-05,3e-05,2.0
36385.0,6e-05,0.00013,0.00023,4e-05,0.0,-6e-05,-1e-05,3e-05,2.0
36386.0,6e-05,0.00013,0.00023,4e-05,0.0,-6e-05,-1e-05,3e-05,2.0
36388.0,6e-05,0.00013,0.00023,4e-05,0.0,-6e-05,-1e-05,3e-05,2.0
36389.0,6e-05,0.00013,0.00023,4e-05,0.0,-6e-05,-1e-05,3e-05,2.0
36390.0,6e-05,0.00013,0.00023,4e-05,0.0,-6e-05,-1e-05,3e-05,2.0
36391.0,6e-05,0.00013,0.00023,4e-05,0.0,-6e-05,-1e-05,3e-05,2.0
36392.0,6e-05,0.00013,0.00023,4e-05,0.0,-6e-05,-1e-05,3e-05,2.0
36393.0,6e-05,0.00013,0.00023,4e-05,0.0,-6e-05,-1e-05,3e-05,2.0
36394.0,6e-05,0.00013,0.00023,4e-05,0.0,-6e-05,-1e-05,3e-05,2.0
36395.0,6e-05,0.00013,0.00023,4e-05,0.0,-6e-05,-1e-05,3e-05,2.0
36396.0,6e-05,0.00013,0.00023,4e-05,0.0,-6e-05,-1e-05,3e-05,2.0
36397.0,6e-05,0.00013,0.00023,4e-05,0.0,-6e-05,-1e-05,3e-05,2.0
36398.0,6e-05,0.00013,0.00023,4e-05,0.0,-6e-05,-1e-05,3e-05,2.0
36399.0,6e-05,0.00013,0.00023,4e-05,0.0,-6e-05,-1e-05,3e-05,2.0
36400.0,6e-05,0.00013,0.00023,4e-05,0.0,-6e-05,-1e-05,3e-05,2.0
36401.0,6e-05,0.00013,0.00023,4e-05,0.0,-6e-05,-1e-05,3e-05,2.0
36402.0,6e-05,0.00013,0.00023,4e-05,0.0,-6e-05,-1e-05,3e-05,2.0
36403.0,6e-05,0.00013,0.00023,4e-05,0.0,-6e-05,-1e-05,3e-05,2.0
36404.0,6e-05,0.00013,0.00023,4e-05,0.0,-6e-05,-1e-05,3e-05,2.0
36405.0,6e-05,0.00013,0.00023,4e-05,0.0,-6e-05,-1e-05,3e-05,2.0
36406.0,6e-05,0.00013,0.00023,4e-05,0.0,-6e-05,-1e-05,3e-05,2.0
36407.0,6e-05,0.00013,0.00023,4e-05,0.0,-6e-05,-1e-05,3e-05,2.0
36408.0,6e-05,0.00013,0.00023,4e-05,0.0,-6e-05,-1e-05,3e-05,2.0
36409.0,6e-05,0.00013,0.00023,4e-05,0.0,-6e-05,-1e-05,3e-05,2.0
36410.0,6e-05,0.00013,0.00023,4e-05,0.0,-6e-05,-1e-05,3e-05,2.0
36411.0,6e-05,0.00013,0.00023,4e-05,0.0,-6e-05,-1e-05,3e-05,2.0
36412.0,6e-05,0.00013,0.00023,4e-05,0.0,-6e-05,-1e-05,3e-05,2.0
36413.0,6e-05,0.00013,0.00023,4e-05,0.0,-6e-05,-1e-05,3e-05,2.0
36414.0,6e-05,0.00013,0.00023,4e-05,0.0,-6e-05,-1e-05,3e-05,2.0
36415.0,6e-05,0.00013,0.00023,4e-05,0.0,-6e-05,-1e-05,3e-05,2.0
36416.0,6e-05,0.00013,0.00023,4e-05,0.0,-6e-05,-1e-05,3e-05,2.0
36417.0,6e-05,0.00013,0.00023,4e-05,0.0,-6e-05,-1e-05,3e-05,2.0
36418.0,6e-05,0.00013,0.00023,4e-05,0.0,-6e-05,-1e-05,3e-05,2.0
36419.0,6e-05,0.00013,0.00023,4e-05,0.0,-6e-05,-1e-05,3e-05,2.0
36420.0,6e-05,0.00013,0.00023,4e-05,0.0,-6e-05,-1e-05,3e-05,2.0
36421.0,6e-05,0.00013,0.00023,4e-05,0.0,-6e-05,-1e-05,3e-05,2.0
36422.0,0.00019,0.00012,0.00023,9e-05,-2e-05,5e-05,0.00013,6e-05,2.0
36423.0,0.00019,0.00012,0.00023,9e-05,-2e-05,5e-05,0.00013,6e-05,2.0
36424.0,1e-05,2e-05,7e-05,0.00019,0.00011,-3e-05,-0.00017,-9e-05,2.0
36425.0,1e-05,2e-05,7e-05,0.00019,0.00011,-3e-05,-0.00017,-9e-05,2.0
36426.0,1e-05,2e-05,7e-05,0.00019,0.00011,-3e-05,-0.00017,-9e-05,2.0
36427.0,1e-05,2e-05,7e-05,0.00019,0.00011,-3e-05,-0.00017,-9e-05,2.0
36428.0,1e-05,2e-05,7e-05,0.00019,0.00011,-3e-05,-0.00017,-9e-05,2.0
36429.0,1e-05,2e-05,7e-05,0.00019,0.00011,-3e-05,-0.00017,-9e-05,2.0
36430.0,1e-05,2e-05,7e-05,0.00019,0.00011,-3e-05,-0.00017,-9e-05,2.0
36431.0,1e-05,2e-05,7e-05,0.00019,0.00011,-3e-05,-0.00017,-9e-05,2.0
36432.0,1e-05,2e-05,7e-05,0.00019,0.00011,-3e-05,-0.00017,-9e-05,2.0
36433.0,1e-05,2e-05,7e-05,0.00019,0.00011,-3e-05,-0.00017,-9e-05,2.0
36434.0,1e-05,2e-05,7e-05,0.00019,0.00011,-3e-05,-0.00017,-9e-05,2.0
36435.0,1e-05,2e-05,7e-05,0.00019,0.00011,-3e-05,-0.00017,-9e-05,2.0
36436.0,1e-05,2e-05,7e-05,0.00019,0.00011,-3e-05,-0.00017,-9e-05,2.0
36439.0,1e-05,2e-05,7e-05,0.00019,0.00011,-3e-05,-0.00017,-9e-05,2.0
36440.0,1e-05,2e-05,7e-05,0.00019,0.00011,-3e-05,-0.00017,-9e-05,2.0
36441.0,1e-05,2e-05,7e-05,0.00019,0.00011,-3e-05,-0.00017,-9e-05,2.0
36442.0,1e-05,2e-05,7e-05,0.00019,0.00011,-3e-05,-0.00017,-9e-05,2.0
36443.0,1e-05,2e-05,7e-05,0.00019,0.00011,-3e-05,-0.00017,-9e-05,2.0
36444.0,1e-05,2e-05,7e-05,0.00019,0.00011,-3e-05,-0.00017,-9e-05,2.0
36445.0,0.0,-2e-05,7e-05,0.0,0.00013,0.00015,0.00027,0.00012,2.0
36446.0,0.0,-2e-05,0.00015,0.00012,4e-05,-6e-05,-0.00024,-8e-05,2.0
36447.0,0.0,-2e-05,0.00015,0.00012,4e-05,-6e-05,-0.00024,-8e-05,2.0
36448.0,0.0001,6e-05,-5e-05,-6e-05,-0.00011,-0.00016,-1e-05,-1e-05,2.0
36449.0,0.0001,6e-05,-5e-05,-6e-05,-0.00011,-0.00016,-1e-05,-1e-05,2.0
36450.0,0.0001,6e-05,-5e-05,-6e-05,-0.00011,-0.00016,-1e-05,-1e-05,2.0
36451.0,0.0001,6e-05,-5e-05,-6e-05,-0.00011,-0.00016,-1e-05,-1e-05,2.0
36452.0,0.0001,6e-05,-5e-05,-6e-05,-0.00011,-0.00016,-1e-05,-1e-05,2.0
36453.0,0.0001,6e-05,-5e-05,-6e-05,-0.00011,-0.00016,-1e-05,-1e-05,2.0
36454.0,0.0001,6e-05,-5e-05,-6e-05,-0.00011,-0.00016,-1e-05,-1e-05,2.0
36455.0,0.0001,6e-05,-5e-05,-6e-05,-0.00011,-0.00016,-1e-05,-1e-05,2.0
36456.0,0.0001,6e-05,-5e-05,-6e-05,-0.00011,-0.00016,-1e-05,-1e-05,2.0
36457.0,0.0001,6e-05,-5e-05,-6e-05,-0.00011,-0.00016,-1e-05,-1e-05,2.0
36458.0,0.0001,6e-05,-5e-05,-6e-05,-0.00011,-0.00016,-1e-05,-1e-05,2.0
36459.0,0.0001,6e-05,-5e-05,-6e-05,-0.00011,-0.00016,-1e-05,-1e-05,2.0
36460.0,0.0001,6e-05,-5e-05,-6e-05,-0.00011,-0.00016,-1e-05,-1e-05,2.0
36461.0,0.0001,6e-05,-5e-05,-6e-05,-0.00011,-0.00016,-1e-05,-1e-05,2.0
36462.0,0.0001,6e-05,-5e-05,-6e-05,-0.00011,-0.00016,-1e-05,-1e-05,2.0
36463.0,0.0001,6e-05,-5e-05,-6e-05,-0.00011,-0.00016,-1e-05,-1e-05,2.0
36464.0,0.0001,6e-05,-5e-05,-6e-05,-0.00011,-0.00016,-1e-05,-1e-05,2.0
36465.0,0.0001,6e-05,-5e-05,-6e-05,-0.00011,-0.00016,-1e-05,-1e-05,2.0
36466.0,0.0001,6e-05,-5e-05,-6e-05,-0.00011,-0.00016,-1e-05,-1e-05,2.0
36467.0,0.0001,6e-05,-5e-05,-6e-05,-0.00011,-0.00016,-1e-05,-1e-05,2.0
36468.0,8e-05,-3e-05,2e-05,-8e-05,-8e-05,-3e-05,4e-05,9e-05,2.0
36469.0,9e-05,3e-05,3e-05,1e-05,5e-05,0.0001,8e-05,5e-05,2.0
36470.0,9e-05,3e-05,3e-05,1e-05,5e-05,0.0001,8e-05,5e-05,2.0
36471.0,9e-05,3e-05,3e-05,1e-05,5e-05,0.0001,8e-05,5e-05,2.0
36472.0,9e-05,3e-05,3e-05,1e-05,5e-05,0.0001,8e-05,5e-05,2.0
36473.0,9e-05,3e-05,3e-05,1e-05,5e-05,0.0001,8e-05,5e-05,2.0
36474.0,4e-05,5e-05,5e-05,-3e-05,-9e-05,-2e-05,-4e-05,-0.00011,2.0
36475.0,4e-05,5e-05,5e-05,-3e-05,-9e-05,-2e-05,-4e-05,-0.00011,2.0
36476.0,4e-05,5e-05,5e-05,-3e-05,-9e-05,-2e-05,-4e-05,-0.00011,2.0
36477.0,4e-05,5e-05,5e-05,-3e-05,-9e-05,-2e-05,-4e-05,-0.00011,2.0
36478.0,4e-05,5e-05,5e-05,-3e-05,-9e-05,-2e-05,-4e-05,-0.00011,2.0
36479.0,4e-05,5e-05,5e-05,-3e-05,-9e-05,-2e-05,-4e-05,-0.00011,2.0
36480.0,4e-05,5e-05,5e-05,-3e-05,-9e-05,-2e-05,-4e-05,-0.00011,2.0
36481.0,4e-05,5e-05,5e-05,-3e-05,-9e-05,-2e-05,-4e-05,-0.00011,2.0
36482.0,4e-05,5e-05,5e-05,-3e-05,-9e-05,-2e-05,-4e-05,-0.00011,2.0
36483.0,4e-05,5e-05,5e-05,-3e-05,-9e-05,-2e-05,-4e-05,-0.00011,2.0
36484.0,4e-05,5e-05,5e-05,-3e-05,-9e-05,-2e-05,-4e-05,-0.00011,2.0
36485.0,4e-05,5e-05,5e-05,-3e-05,-9e-05,-2e-05,-4e-05,-0.00011,2.0
36486.0,4e-05,5e-05,5e-05,-3e-05,-9e-05,-2e-05,-4e-05,-0.00011,2.0
36489.0,4e-05,5e-05,5e-05,-3e-05,-9e-05,-2e-05,-4e-05,-0.00011,2.0
36490.0,4e-05,5e-05,5e-05,-3e-05,-9e-05,-2e-05,-4e-05,-0.00011,2.0
36491.0,4e-05,5e-05,5e-05,-3e-05,-9e-05,-2e-05,-4e-05,-0.00011,2.0
36492.0,4e-05,5e-05,5e-05,-3e-05,-9e-05,-2e-05,-4e-05,-0.00011,2.0
36493.0,4e-05,5e-05,5e-05,-3e-05,-9e-05,-2e-05,-4e-05,-0.00011,2.0
36494.0,4e-05,5e-05,5e-05,-3e-05,-9e-05,-2e-05,-4e-05,-0.00011,2.0
36495.0,4e-05,5e-05,5e-05,-3e-05,-9e-05,-2e-05,-4e-05,-0.00011,2.0
36496.0,4e-05,5e-05,5e-05,-3e-05,-9e-05,-2e-05,-4e-05,-0.00011,2.0
36497.0,-8e-05,-9e-05,-0.00012,5e-05,0.00011,-8e-05,4e-05,0.0,2.0
36498.0,-1e-05,-4e-05,-1e-05,-0.00025,-0.00013,-7e-05,-0.0002,-3e-05,2.0
36499.0,-1e-05,-4e-05,-1e-05,-0.00025,-0.00013,-7e-05,-0.0002,-3e-05,2.0
36500.0,-1e-05,-4e-05,-1e-05,-0.00025,-0.00013,-7e-05,-0.0002,-3e-05,2.0
36501.0,-1e-05,-4e-05,-1e-05,-0.00025,-0.00013,-7e-05,-0.0002,-3e-05,2.0
36502.0,-1e-05,-4e-05,-1e-05,-0.00025,-0.00013,-7e-05,-0.0002,-3e-05,2.0
36503.0,-1e-05,-4e-05,-1e-05,-0.00025,-0.00013,-7e-05,-0.0002,-3e-05,2.0
36504.0,-1e-05,-4e-05,-1e-05,-0.00025,-0.00013,-7e-05,-0.0002,-3e-05,2.0
36505.0,-1e-05,-4e-05,-1e-05,-0.00025,-0.00013,-7e-05,-0.0002,-3e-05,2.0
36506.0,-1e-05,-4e-05,-1e-05,-0.00025,-0.00013,-7e-05,-0.0002,-3e-05,2.0
36507.0,-1e-05,-4e-05,-1e-05,-0.00025,-0.00013,-7e-05,-0.0002,-3e-05,2.0
36508.0,-1e-05,-4e-05,-1e-05,-0.00025,-0.00013,-7e-05,-0.0002,-3e-05,2.0
36509.0,-1e-05,-4e-05,-1e-05,-0.00025,-0.00013,-7e-05,-0.0002,-3e-05,2.0
36510.0,-1e-05,-4e-05,-1e-05,-0.00025,-0.00013,-7e-05,-0.0002,-3e-05,2.0
36511.0,-1e-05,-4e-05,-1e-05,-0.00025,-0.00013,-7e-05,-0.0002,-3e-05,2.0
36512.0,-1e-05,-4e-05,-1e-05,-0.00025,-0.00013,-7e-05,-0.0002,-3e-05,2.0
36513.0,-1e-05,-4e-05,-1e-05,-0.00025,-0.00013,-7e-05,-0.0002,-3e-05,2.0
36514.0,-1e-05,-4e-05,-1e-05,-0.00025,-0.00013,-7e-05,-0.0002,-3e-05,2.0
36515.0,-1e-05,-4e-05,-1e-05,-0.00025,-0.00013,-7e-05,-0.0002,-3e-05,2.0
36516.0,-1e-05,-4e-05,-1e-05,-0.00025,-0.00013,-7e-05,-0.0002,-3e-05,2.0
36517.0,-1e-05,-4e-05,-1e-05,-0.00025,-0.00013,-7e-05,-0.0002,-3e-05,2.0
36518.0,-1e-05,-4e-05,-1e-05,-0.00025,-0.00013,-7e-05,-0.0002,-3e-05,2.0
36519.0,-1e-05,-4e-05,-1e-05,-0.00025,-0.00013,-7e-05,-0.0002,-3e-05,2.0
36520.0,0.00019,9e-05,0.00012,9e-05,0.00014,0.00015,-2e-05,4e-05,2.0
36521.0,-0.0001,-2e-05,-7e-05,-1e-05,5e-05,2e-05,-3e-05,2e-05,2.0
36522.0,-0.0001,-2e-05,-7e-05,-1e-05,5e-05,2e-05,-3e-05,2e-05,2.0
36523.0,-8e-05,-0.00018,-0.00028,-0.00019,-0.0001,-0.00012,-0.00035,-0.00013,2.0
36524.0,-8e-05,-0.00018,-0.00028,-0.00019,-0.0001,-0.00012,-0.00035,-0.00013,2.0
36525.0,-8e-05,-0.00018,-0.00028,-0.00019,-0.0001,-0.00012,-0.00035,-0.00013,2.0
36526.0,-8e-05,-0.00018,-0.00028,-0.00019,-0.0001,-0.00012,-0.00035,-0.00013,2.0
36527.0,-8e-05,-0.00018,-0.00028,-0.00019,-0.0001,-0.00012,-0.00035,-0.00013,2.0
36528.0,-8e-05,-0.00018,-0.00028,-0.00019,-0.0001,-0.00012,-0.00035,-0.00013,2.0
36529.0,-8e-05,-0.00018,-0.00028,-0.00019,-0.0001,-0.00012,-0.00035,-0.00013,2.0
36530.0,-8e-05,-0.00018,-0.00028,-0.00019,-0.0001,-0.00012,-0.00035,-0.00013,2.0
36531.0,-8e-05,-0.00018,-0.00028,-0.00019,-0.0001,-0.00012,-0.00035,-0.00013,2.0
36532.0,-8e-05,-0.00018,-0.00028,-0.00019,-0.0001,-0.00012,-0.00035,-0.00013,2.0
36533.0,-8e-05,-0.00018,-0.00028,-0.00019,-0.0001,-0.00012,-0.00035,-0.00013,2.0
36534.0,-8e-05,-0.00018,-0.00028,-0.00019,-0.0001,-0.00012,-0.00035,-0.00013,2.0
36535.0,-8e-05,-0.00018,-0.00028,-0.00019,-0.0001,-0.00012,-0.00035,-0.00013,2.0
36536.0,-8e-05,-0.00018,-0.00028,-0.00019,-0.0001,-0.00012,-0.00035,-0.00013,2.0
36539.0,-8e-05,-0.00018,-0.00028,-0.00019,-0.0001,-0.00012,-0.00035,-0.00013,2.0
36540.0,-8e-05,-0.00018,-0.00028,-0.00019,-0.0001,-0.00012,-0.00035,-0.00013,2.0
36541.0,-8e-05,-0.00018,-0.00028,-0.00019,-0.0001,-0.00012,-0.00035,-0.00013,2.0
36542.0,-8e-05,-0.00018,-0.00028,-0.00019,-0.0001,-0.00012,-0.00035,-0.00013,2.0
36543.0,-8e-05,-0.00018,-0.00028,-0.00019,-0.0001,-0.00012,-0.00035,-0.00013,2.0
36544.0,-8e-05,-0.00018,-0.00028,-0.00019,-0.0001,-0.00012,-0.00035,-0.00013,2.0
36545.0,-8e-05,-0.00018,-0.00028,-0.00019,-0.0001,-0.00012,-0.00035,-0.00013,2.0
36546.0,-8e-05,-0.00018,-0.00028,-0.00019,-0.0001,-0.00012,-0.00035,-0.00013,2.0
36547.0,-8e-05,-0.00018,-0.00028,-0.00019,-0.0001,-0.00012,-0.00035,-0.00013,2.0
36548.0,-8e-05,-0.00018,-0.00028,-0.00019,-0.0001,-0.00012,-0.00035,-0.00013,2.0
36549.0,-8e-05,-0.00018,-0.00028,-0.00019,-0.0001,-0.00012,-0.00035,-0.00013,2.0
36550.0,-8e-05,-0.00018,-0.00028,-0.00019,-0.0001,-0.00012,-0.00035,-0.00013,2.0
36551.0,-8e-05,-0.00018,-0.00028,-0.00019,-0.0001,-0.00012,-0.00035,-0.00013,2.0
36552.0,-8e-05,-0.00018,-0.00028,-0.00019,-0.0001,-0.00012,-0.00035,-0.00013,2.0
36553.0,-8e-05,-0.00018,-0.00028,-0.00019,-0.0001,-0.00012,-0.00035,-0.00013,2.0
36554.0,-8e-05,-0.00018,-0.00028,-0.00019,-0.0001,-0.00012,-0.00035,-0.00013,2.0
36555.0,-8e-05,-0.00018,-0.00028,-0.00019,-0.0001,-0.00012,-0.00035,-0.00013,2.0
36556.0,-8e-05,-0.00018,-0.00028,-0.00019,-0.0001,-0.00012,-0.00035,-0.00013,2.0
36557.0,-8e-05,-0.00018,-0.00028,-0.00019,-0.0001,-0.00012,-0.00035,-0.00013,2.0
36558.0,-8e-05,-0.00018,-0.00028,-0.00019,-0.0001,-0.00012,-0.00035,-0.00013,2.0
36559.0,-8e-05,-0.00018,-0.00028,-0.00019,-0.0001,-0.00012,-0.00035,-0.00013,2.0
36560.0,-8e-05,-0.00018,-0.00028,-0.00019,-0.0001,-0.00012,-0.00035,-0.00013,2.0
36561.0,-8e-05,-0.00018,-0.00028,-0.00019,-0.0001,-0.00012,-0.00035,-0.00013,2.0
36562.0,-8e-05,-0.00018,-0.00028,-0.00019,-0.0001,-0.00012,-0.00035,-0.00013,2.0
36563.0,-8e-05,-0.00018,-0.00028,-0.00019,-0.0001,-0.00012,-0.00035,-0.00013,2.0
36564.0,-8e-05,-0.00018,-0.00028,-0.00019,-0.0001,-0.00012,-0.00035,-0.00013,2.0
36565.0,-8e-05,-0.00018,-0.00028,-0.00019,-0.0001,-0.00012,-0.00035,-0.00013,2.0
36566.0,-8e-05,-0.00018,-0.00028,-0.00019,-0.0001,-0.00012,-0.00035,-0.00013,2.0
36567.0,-8e-05,-0.00018,-0.00028,-0.00019,-0.0001,-0.00012,-0.00035,-0.00013,2.0
36568.0,-8e-05,-0.00018,-0.00028,-0.00019,-0.0001,-0.00012,-0.00035,-0.00013,2.0
36569.0,-8e-05,-0.00018,-0.00028,-0.00019,-0.0001,-0.00012,-0.00035,-0.00013,2.0
36570.0,-8e-05,-0.00018,-0.00028,-0.00019,-0.0001,-0.00012,-0.00035,-0.00013,2.0
36571.0,-8e-05,-0.00018,-0.00028,-0.00019,-0.0001,-0.00012,-0.00035,-0.00013,2.0
36572.0,5e-05,-2e-05,2e-05,0.0,6e-05,0.0001,0.00013,3e-05,2.0
36573.0,1e-05,0.00021,0.00018,4e-05,-7e-05,-2e-05,-6e-05,-3e-05,2.0
36574.0,8e-05,-5e-05,-0.00018,-0.00017,0.0,-2e-05,0.00017,2e-05,2.0
36575.0,8e-05,-5e-05,-0.00018,-0.00017,0.0,-2e-05,0.00017,2e-05,2.0
36576.0,8e-05,-5e-05,-0.00018,-0.00017,0.0,-2e-05,0.00017,2e-05,2.0
36577.0,8e-05,-5e-05,-0.00018,-0.00017,0.0,-2e-05,0.00017,2e-05,2.0
36579.0,8e-05,-5e-05,-0.00018,-0.00017,0.0,-2e-05,0.00017,2e-05,2.0
36580.0,8e-05,-5e-05,-0.00018,-0.00017,0.0,-2e-05,0.00017,2e-05,2.0
36581.0,8e-05,-5e-05,-0.00018,-0.00017,0.0,-2e-05,0.00017,2e-05,2.0
36582.0,8e-05,-5e-05,-0.00018,-0.00017,0.0,-2e-05,0.00017,2e-05,2.0
36583.0,8e-05,-5e-05,-0.00018,-0.00017,0.0,-2e-05,0.00017,2e-05,2.0
36584.0,8e-05,-5e-05,-0.00018,-0.00017,0.0,-2e-05,0.00017,2e-05,2.0
36585.0,8e-05,-5e-05,-0.00018,-0.00017,0.0,-2e-05,0.00017,2e-05,2.0
36586.0,8e-05,-5e-05,-0.00018,-0.00017,0.0,-2e-05,0.00017,2e-05,2.0
36589.0,8e-05,-5e-05,-0.00018,-0.00017,0.0,-2e-05,0.00017,2e-05,2.0
36590.0,8e-05,-5e-05,-0.00018,-0.00017,0.0,-2e-05,0.00017,2e-05,2.0
36591.0,8e-05,-5e-05,-0.00018,-0.00017,0.0,-2e-05,0.00017,2e-05,2.0
36592.0,8e-05,-5e-05,-0.00018,-0.00017,0.0,-2e-05,0.00017,2e-05,2.0
36593.0,8e-05,-5e-05,-0.00018,-0.00017,0.0,-2e-05,0.00017,2e-05,2.0
36594.0,8e-05,-5e-05,-0.00018,-0.00017,0.0,-2e-05,0.00017,2e-05,2.0
36595.0,-5e-05,5e-05,0.00024,0.00024,0.0003,0.00028,0.00032,9e-05,2.0
36596.0,-0.00019,-0.00013,-0.00012,-0.00025,-0.00013,-0.00024,-0.00026,-0.00034,2.0
36597.0,3e-05,-0.00012,-0.00024,-0.00024,-0.00014,-0.00023,-0.00028,-0.00014,2.0
36598.0,-0.0001,-3e-05,1e-05,9e-05,-6e-05,-8e-05,0.00012,3e-05,2.0
36599.0,-0.0001,-3e-05,1e-05,9e-05,-6e-05,-8e-05,0.00012,3e-05,2.0
36600.0,-0.0001,-3e-05,1e-05,9e-05,-6e-05,-8e-05,0.00012,3e-05,2.0
36601.0,-0.0001,-3e-05,1e-05,9e-05,-6e-05,-8e-05,0.00012,3e-05,2.0
36602.0,0.00017,0.0002,0.00032,0.00012,-9e-05,-6e-05,-8e-05,0.00014,2.0
36603.0,0.00017,0.0002,0.00032,0.00012,-9e-05,-6e-05,-8e-05,0.00014,2.0
36604.0,0.00017,0.0002,0.00032,0.00012,-9e-05,-6e-05,-8e-05,0.00014,2.0
36605.0,0.00017,0.0002,0.00032,0.00012,-9e-05,-6e-05,-8e-05,0.00014,2.0
36606.0,0.00017,0.0002,0.00032,0.00012,-9e-05,-6e-05,-8e-05,0.00014,2.0
36607.0,0.00017,0.0002,0.00032,0.00012,-9e-05,-6e-05,-8e-05,0.00014,2.0
36608.0,0.00017,0.0002,0.00032,0.00012,-9e-05,-6e-05,-8e-05,0.00014,2.0
36609.0,0.00017,0.0002,0.00032,0.00012,-9e-05,-6e-05,-8e-05,0.00014,2.0
36610.0,0.00017,0.0002,0.00032,0.00012,-9e-05,-6e-05,-8e-05,0.00014,2.0
36611.0,0.00017,0.0002,0.00032,0.00012,-9e-05,-6e-05,-8e-05,0.00014,2.0
36612.0,0.00017,0.0002,0.00032,0.00012,-9e-05,-6e-05,-8e-05,0.00014,2.0
36613.0,0.00017,0.0002,0.00032,0.00012,-9e-05,-6e-05,-8e-05,0.00014,2.0
36614.0,0.00017,0.0002,0.00032,0.00012,-9e-05,-6e-05,-8e-05,0.00014,2.0
36615.0,0.00017,0.0002,0.00032,0.00012,-9e-05,-6e-05,-8e-05,0.00014,2.0
36616.0,0.00017,0.0002,0.00032,0.00012,-9e-05,-6e-05,-8e-05,0.00014,2.0
36617.0,0.00017,0.0002,0.00032,0.00012,-9e-05,-6e-05,-8e-05,0.00014,2.0
36618.0,0.00017,0.0002,0.00032,0.00012,-9e-05,-6e-05,-8e-05,0.00014,2.0
36619.0,0.00017,0.0002,0.00032,0.00012,-9e-05,-6e-05,-8e-05,0.00014,2.0
36620.0,0.00017,0.0002,0.00032,0.00012,-9e-05,-6e-05,-8e-05,0.00014,2.0
36621.0,0.00017,0.0002,0.00032,0.00012,-9e-05,-6e-05,-8e-05,0.00014,2.0
36622.0,0.00017,0.0002,0.00032,0.00012,-9e-05,-6e-05,-8e-05,0.00014,2.0
36623.0,0.00017,0.0002,0.00032,0.00012,-9e-05,-6e-05,-8e-05,0.00014,2.0
36624.0,-0.00017,-0.00014,-0.00021,-7e-05,-5e-05,-2e-05,-8e-05,-7e-05,2.0
36625.0,-0.00017,-0.00014,-0.00021,-7e-05,-5e-05,-2e-05,-8e-05,-7e-05,2.0
36626.0,-0.00017,-0.00014,-0.00021,-7e-05,-5e-05,-2e-05,-8e-05,-7e-05,2.0
36627.0,-0.00017,-0.00014,-0.00021,-7e-05,-5e-05,-2e-05,-8e-05,-7e-05,2.0
36628.0,-0.00017,-0.00014,-0.00021,-7e-05,-5e-05,-2e-05,-8e-05,-7e-05,2.0
36629.0,-0.00017,-0.00014,-0.00021,-7e-05,-5e-05,-2e-05,-8e-05,-7e-05,2.0
36630.0,-0.00017,-0.00014,-0.00021,-7e-05,-5e-05,-2e-05,-8e-05,-7e-05,2.0
36631.0,-0.00017,-0.00014,-0.00021,-7e-05,-5e-05,-2e-05,-8e-05,-7e-05,2.0
36632.0,-0.00017,-0.00014,-0.00021,-7e-05,-5e-05,-2e-05,-8e-05,-7e-05,2.0
36633.0,-0.00017,-0.00014,-0.00021,-7e-05,-5e-05,-2e-05,-8e-05,-7e-05,2.0
36634.0,-0.00017,-0.00014,-0.00021,-7e-05,-5e-05,-2e-05,-8e-05,-7e-05,2.0
36635.0,-0.00017,-0.00014,-0.00021,-7e-05,-5e-05,-2e-05,-8e-05,-7e-05,2.0
36636.0,-0.00017,-0.00014,-0.00021,-7e-05,-5e-05,-2e-05,-8e-05,-7e-05,2.0
36639.0,-0.00017,-0.00014,-0.00021,-7e-05,-5e-05,-2e-05,-8e-05,-7e-05,2.0
36640.0,-0.00017,-0.00014,-0.00021,-7e-05,-5e-05,-2e-05,-8e-05,-7e-05,2.0
36641.0,-0.00017,-0.00014,-0.00021,-7e-05,-5e-05,-2e-05,-8e-05,-7e-05,2.0
36642.0,-0.00017,-0.00014,-0.00021,-7e-05,-5e-05,-2e-05,-8e-05,-7e-05,2.0
36643.0,-0.00017,-0.00014,-0.00021,-7e-05,-5e-05,-2e-05,-8e-05,-7e-05,2.0
36644.0,-0.00017,-0.00014,-0.00021,-7e-05,-5e-05,-2e-05,-8e-05,-7e-05,2.0
36645.0,-0.00017,-0.00014,-0.00021,-7e-05,-5e-05,-2e-05,-8e-05,-7e-05,2.0
36646.0,-0.00017,-0.00014,-0.00021,-7e-05,-5e-05,-2e-05,-8e-05,-7e-05,2.0
36647.0,-0.00017,-0.00014,-0.00021,-7e-05,-5e-05,-2e-05,-8e-05,-7e-05,2.0
36648.0,-3e-05,-2e-05,-7e-05,6e-05,0.00019,0.00011,0.00014,-4e-05,2.0
36649.0,9e-05,-1e-05,-2e-05,-0.00014,-6e-05,-1e-05,0.00011,6e-05,2.0
36650.0,-3e-05,-4e-05,-6e-05,0.0,2e-05,-0.00011,3e-05,-0.00011,2.0
36651.0,-3e-05,-4e-05,-6e-05,0.0,2e-05,-0.00011,3e-05,-0.00011,2.0
36652.0,-3e-05,-4e-05,-6e-05,0.0,2e-05,-0.00011,3e-05,-0.00011,2.0
36653.0,-3e-05,-4e-05,-6e-05,0.0,2e-05,-0.00011,3e-05,-0.00011,2.0
36654.0,-3e-05,-4e-05,-6e-05,0.0,2e-05,-0.00011,3e-05,-0.00011,2.0
36655.0,-3e-05,-4e-05,-6e-05,0.0,2e-05,-0.00011,3e-05,-0.00011,2.0
36656.0,-3e-05,-4e-05,-6e-05,0.0,2e-05,-0.00011,3e-05,-0.00011,2.0
36657.0,-3e-05,-4e-05,-6e-05,0.0,2e-05,-0.00011,3e-05,-0.00011,2.0
36658.0,-3e-05,-4e-05,-6e-05,0.0,2e-05,-0.00011,3e-05,-0.00011,2.0
36659.0,-3e-05,-4e-05,-6e-05,0.0,2e-05,-0.00011,3e-05,-0.00011,2.0
36660.0,-3e-05,-4e-05,-6e-05,0.0,2e-05,-0.00011,3e-05,-0.00011,2.0
36661.0,-3e-05,-4e-05,-6e-05,0.0,2e-05,-0.00011,3e-05,-0.00011,2.0
36662.0,-3e-05,-4e-05,-6e-05,0.0,2e-05,-0.00011,3e-05,-0.00011,2.0
36663.0,-3e-05,-4e-05,-6e-05,0.0,2e-05,-0.00011,3e-05,-0.00011,2.0
36664.0,-3e-05,-4e-05,-6e-05,0.0,2e-05,-0.00011,3e-05,-0.00011,2.0
36665.0,-3e-05,-4e-05,-6e-05,0.0,2e-05,-0.00011,3e-05,-0.00011,2.0
36666.0,-3e-05,-4e-05,-6e-05,0.0,2e-05,-0.00011,3e-05,-0.00011,2.0
36667.0,-3e-05,-4e-05,-6e-05,0.0,2e-05,-0.00011,3e-05,-0.00011,2.0
36668.0,-3e-05,-4e-05,-6e-05,0.0,2e-05,-0.00011,3e-05,-0.00011,2.0
36669.0,-3e-05,-4e-05,-6e-05,0.0,2e-05,-0.00011,3e-05,-0.00011,2.0
36670.0,-3e-05,-4e-05,-6e-05,0.0,2e-05,-0.00011,3e-05,-0.00011,2.0
36671.0,2e-05,7e-05,2e-05,2e-05,6e-05,-4e-05,-0.00012,-5e-05,2.0
36672.0,0.00023,0.00011,9e-05,-0.00015,-0.00011,-1e-05,5e-05,0.00011,2.0
36673.0,0.00012,1e-05,2e-05,0.00016,0.00014,0.00011,0.00013,8e-05,2.0
36674.0,0.00012,1e-05,2e-05,0.00016,0.00014,0.00011,0.00013,8e-05,2.0
36675.0,0.00012,1e-05,2e-05,0.00016,0.00014,0.00011,0.00013,8e-05,2.0
36676.0,2e-05,1e-05,7e-05,8e-05,-1e-05,8e-05,4e-05,0.00015,2.0
36677.0,2e-05,1e-05,7e-05,8e-05,-1e-05,8e-05,4e-05,0.00015,2.0
36678.0,2e-05,1e-05,7e-05,8e-05,-1e-05,8e-05,4e-05,0.00015,2.0
36679.0,2e-05,1e-05,7e-05,8e-05,-1e-05,8e-05,4e-05,0.00015,2.0
36680.0,2e-05,1e-05,7e-05,8e-05,-1e-05,8e-05,4e-05,0.00015,2.0
36681.0,2e-05,1e-05,7e-05,8e-05,-1e-05,8e-05,4e-05,0.00015,2.0
36682.0,2e-05,1e-05,7e-05,8e-05,-1e-05,8e-05,4e-05,0.00015,2.0
36683.0,2e-05,1e-05,7e-05,8e-05,-1e-05,8e-05,4e-05,0.00015,2.0
36684.0,2e-05,1e-05,7e-05,8e-05,-1e-05,8e-05,4e-05,0.00015,2.0
36685.0,2e-05,1e-05,7e-05,8e-05,-1e-05,8e-05,4e-05,0.00015,2.0
36686.0,2e-05,1e-05,7e-05,8e-05,-1e-05,8e-05,4e-05,0.00015,2.0
36689.0,2e-05,1e-05,7e-05,8e-05,-1e-05,8e-05,4e-05,0.00015,2.0
36690.0,2e-05,1e-05,7e-05,8e-05,-1e-05,8e-05,4e-05,0.00015,2.0
36691.0,2e-05,1e-05,7e-05,8e-05,-1e-05,8e-05,4e-05,0.00015,2.0
36692.0,2e-05,1e-05,7e-05,8e-05,-1e-05,8e-05,4e-05,0.00015,2.0
36693.0,2e-05,1e-05,7e-05,8e-05,-1e-05,8e-05,4e-05,0.00015,2.0
36694.0,2e-05,1e-05,7e-05,8e-05,-1e-05,8e-05,4e-05,0.00015,2.0
36695.0,2e-05,1e-05,7e-05,8e-05,-1e-05,8e-05,4e-05,0.00015,2.0
36696.0,2e-05,1e-05,7e-05,8e-05,-1e-05,8e-05,4e-05,0.00015,2.0
36697.0,2e-05,1e-05,7e-05,8e-05,-1e-05,8e-05,4e-05,0.00015,2.0
36698.0,2e-05,1e-05,7e-05,8e-05,-1e-05,8e-05,4e-05,0.00015,2.0
36699.0,2e-05,1e-05,7e-05,8e-05,-1e-05,8e-05,4e-05,0.00015,2.0
36700.0,2e-05,1e-05,7e-05,8e-05,-1e-05,8e-05,4e-05,0.00015,2.0
36701.0,2e-05,1e-05,7e-05,8e-05,-1e-05,8e-05,4e-05,0.00015,2.0
36702.0,2e-05,1e-05,7e-05,8e-05,-1e-05,8e-05,4e-05,0.00015,2.0
36703.0,2e-05,1e-05,7e-05,8e-05,-1e-05,8e-05,4e-05,0.00015,2.0
36704.0,2e-05,1e-05,7e-05,8e-05,-1e-05,8e-05,4e-05,0.00015,2.0
36705.0,2e-05,1e-05,7e-05,8e-05,-1e-05,8e-05,4e-05,0.00015,2.0
36706.0,2e-05,1e-05,7e-05,8e-05,-1e-05,8e-05,4e-05,0.00015,2.0
36707.0,2e-05,1e-05,7e-05,8e-05,-1e-05,8e-05,4e-05,0.00015,2.0
36708.0,2e-05,1e-05,7e-05,8e-05,-1e-05,8e-05,4e-05,0.00015,2.0
36709.0,2e-05,1e-05,7e-05,8e-05,-1e-05,8e-05,4e-05,0.00015,2.0
36710.0,2e-05,1e-05,7e-05,8e-05,-1e-05,8e-05,4e-05,0.00015,2.0
36711.0,2e-05,1e-05,7e-05,8e-05,-1e-05,8e-05,4e-05,0.00015,2.0
36712.0,2e-05,1e-05,7e-05,8e-05,-1e-05,8e-05,4e-05,0.00015,2.0
36713.0,2e-05,1e-05,7e-05,8e-05,-1e-05,8e-05,4e-05,0.00015,2.0
36714.0,2e-05,1e-05,7e-05,8e-05,-1e-05,8e-05,4e-05,0.00015,2.0
36715.0,2e-05,1e-05,7e-05,8e-05,-1e-05,8e-05,4e-05,0.00015,2.0
36716.0,2e-05,1e-05,7e-05,8e-05,-1e-05,8e-05,4e-05,0.00015,2.0
36717.0,2e-05,1e-05,7e-05,8e-05,-1e-05,8e-05,4e-05,0.00015,2.0
36718.0,2e-05,1e-05,7e-05,8e-05,-1e-05,8e-05,4e-05,0.00015,2.0
36719.0,2e-05,1e-05,7e-05,8e-05,-1e-05,8e-05,4e-05,0.00015,2.0
36720.0,2e-05,1e-05,7e-05,8e-05,-1e-05,8e-05,4e-05,0.00015,2.0
36721.0,2e-05,1e-05,7e-05,8e-05,-1e-05,8e-05,4e-05,0.00015,2.0
36722.0,2e-05,1e-05,7e-05,8e-05,-1e-05,8e-05,4e-05,0.00015,2.0
36723.0,2e-05,1e-05,7e-05,8e-05,-1e-05,8e-05,4e-05,0.00015,2.0
36724.0,0.00014,0.00017,2e-05,-0.00012,-3e-05,3e-05,-0.00018,-7e-05,2.0
36725.0,-0.00017,-0.00012,-0.00015,-5e-05,-1e-05,0.0,5e-05,-0.0001,2.0
36726.0,-0.00017,-0.00012,-0.00015,-5e-05,-1e-05,0.0,5e-05,-0.0001,2.0
36727.0,-0.00017,-0.00012,-0.00015,-5e-05,-1e-05,0.0,5e-05,-0.0001,2.0
36728.0,-0.00017,-0.00012,-0.00015,-5e-05,-1e-05,0.0,5e-05,-0.0001,2.0
36729.0,-0.00017,-0.00012,-0.00015,-5e-05,-1e-05,0.0,5e-05,-0.0001,2.0
36730.0,-0.00017,-0.00012,-0.00015,-5e-05,-1e-05,0.0,5e-05,-0.0001,2.0
36731.0,-0.00017,-0.00012,-0.00015,-5e-05,-1e-05,0.0,5e-05,-0.0001,2.0
36732.0,-0.00017,-0.00012,-0.00015,-5e-05,-1e-05,0.0,5e-05,-0.0001,2.0
36733.0,-0.00017,-0.00012,-0.00015,-5e-05,-1e-05,0.0,5e-05,-0.0001,2.0
36734.0,-0.00017,-0.00012,-0.00015,-5e-05,-1e-05,0.0,5e-05,-0.0001,2.0
36735.0,-0.00017,-0.00012,-0.00015,-5e-05,-1e-05,0.0,5e-05,-0.0001,2.0
36736.0,-0.00017,-0.00012,-0.00015,-5e-05,-1e-05,0.0,5e-05,-0.0001,2.0
36739.0,-0.00017,-0.00012,-0.00015,-5e-05,-1e-05,0.0,5e-05,-0.0001,2.0
36740.0,-0.00017,-0.00012,-0.00015,-5e-05,-1e-05,0.0,5e-05,-0.0001,2.0
36741.0,-0.00017,-0.00012,-0.00015,-5e-05,-1e-05,0.0,5e-05,-0.0001,2.0
36742.0,-0.00017,-0.00012,-0.00015,-5e-05,-1e-05,0.0,5e-05,-0.0001,2.0
36743.0,-0.00017,-0.00012,-0.00015,-5e-05,-1e-05,0.0,5e-05,-0.0001,2.0
36744.0,-0.00017,-0.00012,-0.00015,-5e-05,-1e-05,0.0,5e-05,-0.0001,2.0
36745.0,-8e-05,-0.00013,-0.00014,-0.00023,-6e-05,0.00015,-7e-05,-9e-05,2.0
36746.0,5e-05,-4e-05,-9e-05,-5e-05,-5e-05,1e-05,0.00012,3e-05,2.0
36747.0,5e-05,-4e-05,-9e-05,-5e-05,-5e-05,1e-05,0.00012,3e-05,2.0
36748.0,5e-05,-4e-05,-9e-05,-5e-05,-5e-05,1e-05,0.00012,3e-05,2.0
36749.0,5e-05,-4e-05,-9e-05,-5e-05,-5e-05,1e-05,0.00012,3e-05,2.0
36750.0,5e-05,-4e-05,-9e-05,-5e-05,-5e-05,1e-05,0.00012,3e-05,2.0
36751.0,5e-05,-4e-05,-9e-05,-5e-05,-5e-05,1e-05,0.00012,3e-05,2.0
36752.0,5e-05,-4e-05,-9e-05,-5e-05,-5e-05,1e-05,0.00012,3e-05,2.0
36753.0,5e-05,-4e-05,-9e-05,-5e-05,-5e-05,1e-05,0.00012,3e-05,2.0
36754.0,5e-05,-4e-05,-9e-05,-5e-05,-5e-05,1e-05,0.00012,3e-05,2.0
36755.0,5e-05,-4e-05,-9e-05,-5e-05,-5e-05,1e-05,0.00012,3e-05,2.0
36756.0,5e-05,-4e-05,-9e-05,-5e-05,-5e-05,1e-05,0.00012,3e-05,2.0
36757.0,5e-05,-4e-05,-9e-05,-5e-05,-5e-05,1e-05,0.00012,3e-05,2.0
36758.0,5e-05,-4e-05,-9e-05,-5e-05,-5e-05,1e-05,0.00012,3e-05,2.0
36759.0,5e-05,-4e-05,-9e-05,-5e-05,-5e-05,1e-05,0.00012,3e-05,2.0
36760.0,5e-05,-4e-05,-9e-05,-5e-05,-5e-05,1e-05,0.00012,3e-05,2.0
36761.0,5e-05,-4e-05,-9e-05,-5e-05,-5e-05,1e-05,0.00012,3e-05,2.0
36762.0,5e-05,-4e-05,-9e-05,-5e-05,-5e-05,1e-05,0.00012,3e-05,2.0
36763.0,5e-05,-4e-05,-9e-05,-5e-05,-5e-05,1e-05,0.00012,3e-05,2.0
36764.0,5e-05,-4e-05,-9e-05,-5e-05,-5e-05,1e-05,0.00012,3e-05,2.0
36765.0,5e-05,-4e-05,-9e-05,-5e-05,-5e-05,1e-05,0.00012,3e-05,2.0
36766.0,5e-05,-4e-05,-9e-05,-5e-05,-5e-05,1e-05,0.00012,3e-05,2.0
36767.0,5e-05,-4e-05,-9e-05,-5e-05,-5e-05,1e-05,0.00012,3e-05,2.0
36768.0,5e-05,-4e-05,-9e-05,-5e-05,-5e-05,1e-05,0.00012,3e-05,2.0
36769.0,5e-05,-4e-05,-9e-05,-5e-05,-5e-05,1e-05,0.00012,3e-05,2.0
36770.0,5e-05,-4e-05,-9e-05,-5e-05,-5e-05,1e-05,0.00012,3e-05,2.0
36771.0,5e-05,-4e-05,-9e-05,-5e-05,-5e-05,1e-05,0.00012,3e-05,2.0
36772.0,5e-05,-4e-05,-9e-05,-5e-05,-5e-05,1e-05,0.00012,3e-05,2.0
36773.0,5e-05,-4e-05,-9e-05,-5e-05,-5e-05,1e-05,0.00012,3e-05,2.0
36774.0,5e-05,-4e-05,-9e-05,-5e-05,-5e-05,1e-05,0.00012,3e-05,2.0
36775.0,-0.00012,-5e-05,-0.00025,-0.00013,-0.00012,-2e-05,0.00017,6e-05,2.0
36776.0,6e-05,4e-05,-6e-05,7e-05,0.00024,9e-05,0.00013,0.00014,2.0
36777.0,-4e-05,0.0,2e-05,2e-05,-1e-05,2e-05,-9e-05,-0.00011,2.0
36778.0,-4e-05,0.0,2e-05,2e-05,-1e-05,2e-05,-9e-05,-0.00011,2.0
36779.0,-4e-05,0.0,2e-05,2e-05,-1e-05,2e-05,-9e-05,-0.00011,2.0
36780.0,-4e-05,0.0,2e-05,2e-05,-1e-05,2e-05,-9e-05,-0.00011,2.0
36781.0,-4e-05,0.0,2e-05,2e-05,-1e-05,2e-05,-9e-05,-0.00011,2.0
36782.0,-4e-05,0.0,2e-05,2e-05,-1e-05,2e-05,-9e-05,-0.00011,2.0
36783.0,-4e-05,0.0,2e-05,2e-05,-1e-05,2e-05,-9e-05,-0.00011,2.0
36784.0,-4e-05,0.0,2e-05,2e-05,-1e-05,2e-05,-9e-05,-0.00011,2.0
36785.0,-4e-05,0.0,2e-05,2e-05,-1e-05,2e-05,-9e-05,-0.00011,2.0
36786.0,-4e-05,0.0,2e-05,2e-05,-1e-05,2e-05,-9e-05,-0.00011,2.0
36788.0,-4e-05,0.0,2e-05,2e-05,-1e-05,2e-05,-9e-05,-0.00011,2.0
36789.0,-4e-05,0.0,2e-05,2e-05,-1e-05,2e-05,-9e-05,-0.00011,2.0
36790.0,-4e-05,0.0,2e-05,2e-05,-1e-05,2e-05,-9e-05,-0.00011,2.0
36791.0,-4e-05,0.0,2e-05,2e-05,-1e-05,2e-05,-9e-05,-0.00011,2.0
36792.0,-4e-05,0.0,2e-05,2e-05,-1e-05,2e-05,-9e-05,-0.00011,2.0
36793.0,-4e-05,0.0,2e-05,2e-05,-1e-05,2e-05,-9e-05,-0.00011,2.0
36794.0,-4e-05,0.0,2e-05,2e-05,-1e-05,2e-05,-9e-05,-0.00011,2.0
36795.0,-4e-05,0.0,2e-05,2e-05,-1e-05,2e-05,-9e-05,-0.00011,2.0
36796.0,-4e-05,0.0,2e-05,2e-05,-1e-05,2e-05,-9e-05,-0.00011,2.0
36797.0,-4e-05,0.0,2e-05,2e-05,-1e-05,2e-05,-9e-05,-0.00011,2.0
36798.0,4e-05,-0.00015,-0.00021,-6e-05,-6e-05,-0.00012,2e-05,4e-05,2.0
36799.0,8e-05,0.00011,0.00014,4e-05,2e-05,3e-05,3e-05,3e-05,2.0
36800.0,2e-05,-9e-05,-0.00013,0.00014,8e-05,0.0,-0.00015,-1e-05,2.0
36801.0,2e-05,-9e-05,-0.00013,0.00014,8e-05,0.0,-0.00015,-1e-05,2.0
36802.0,2e-05,-9e-05,-0.00013,0.00014,8e-05,0.0,-0.00015,-1e-05,2.0
36803.0,2e-05,-9e-05,-0.00013,0.00014,8e-05,0.0,-0.00015,-1e-05,2.0
36804.0,2e-05,-9e-05,-0.00013,0.00014,8e-05,0.0,-0.00015,-1e-05,2.0
36805.0,2e-05,-9e-05,-0.00013,0.00014,8e-05,0.0,-0.00015,-1e-05,2.0
36806.0,2e-05,-9e-05,-0.00013,0.00014,8e-05,0.0,-0.00015,-1e-05,2.0
36807.0,2e-05,-9e-05,-0.00013,0.00014,8e-05,0.0,-0.00015,-1e-05,2.0
36808.0,2e-05,-9e-05,-0.00013,0.00014,8e-05,0.0,-0.00015,-1e-05,2.0
36809.0,2e-05,-9e-05,-0.00013,0.00014,8e-05,0.0,-0.00015,-1e-05,2.0
36810.0,2e-05,-9e-05,-0.00013,0.00014,8e-05,0.0,-0.00015,-1e-05,2.0
36811.0,2e-05,-9e-05,-0.00013,0.00014,8e-05,0.0,-0.00015,-1e-05,2.0
36812.0,2e-05,-9e-05,-0.00013,0.00014,8e-05,0.0,-0.00015,-1e-05,2.0
36814.0,2e-05,-9e-05,-0.00013,0.00014,8e-05,0.0,-0.00015,-1e-05,2.0
36815.0,2e-05,-9e-05,-0.00013,0.00014,8e-05,0.0,-0.00015,-1e-05,2.0
36816.0,2e-05,-9e-05,-0.00013,0.00014,8e-05,0.0,-0.00015,-1e-05,2.0
36817.0,2e-05,-9e-05,-0.00013,0.00014,8e-05,0.0,-0.00015,-1e-05,2.0
36818.0,2e-05,-9e-05,-0.00013,0.00014,8e-05,0.0,-0.00015,-1e-05,2.0
36819.0,2e-05,-9e-05,-0.00013,0.00014,8e-05,0.0,-0.00015,-1e-05,2.0
36820.0,2e-05,-9e-05,-0.00013,0.00014,8e-05,0.0,-0.00015,-1e-05,2.0
36821.0,2e-05,-9e-05,-0.00013,0.00014,8e-05,0.0,-0.00015,-1e-05,2.0
36822.0,2e-05,-9e-05,-0.00013,0.00014,8e-05,0.0,-0.00015,-1e-05,2.0
36823.0,2e-05,-9e-05,-0.00013,0.00014,8e-05,0.0,-0.00015,-1e-05,2.0
36824.0,2e-05,-9e-05,-0.00013,0.00014,8e-05,0.0,-0.00015,-1e-05,2.0
36825.0,2e-05,-9e-05,-0.00013,0.00014,8e-05,0.0,-0.00015,-1e-05,2.0
36826.0,2e-05,-9e-05,-0.00013,0.00014,8e-05,0.0,-0.00015,-1e-05,2.0
36827.0,2e-05,-9e-05,-0.00013,0.00014,8e-05,0.0,-0.00015,-1e-05,2.0
36828.0,2e-05,-9e-05,-0.00013,0.00014,8e-05,0.0,-0.00015,-1e-05,2.0
36829.0,2e-05,-9e-05,-0.00013,0.00014,8e-05,0.0,-0.00015,-1e-05,2.0
36830.0,2e-05,-9e-05,-0.00013,0.00014,8e-05,0.0,-0.00015,-1e-05,2.0
36831.0,2e-05,-9e-05,-0.00013,0.00014,8e-05,0.0,-0.00015,-1e-05,2.0
36832.0,2e-05,-9e-05,-0.00013,0.00014,8e-05,0.0,-0.00015,-1e-05,2.0
36833.0,2e-05,-9e-05,-0.00013,0.00014,8e-05,0.0,-0.00015,-1e-05,2.0
36834.0,2e-05,-9e-05,-0.00013,0.00014,8e-05,0.0,-0.00015,-1e-05,2.0
36835.0,2e-05,-9e-05,-0.00013,0.00014,8e-05,0.0,-0.00015,-1e-05,2.0
36836.0,2e-05,-9e-05,-0.00013,0.00014,8e-05,0.0,-0.00015,-1e-05,2.0
36838.0,2e-05,-9e-05,-0.00013,0.00014,8e-05,0.0,-0.00015,-1e-05,2.0
36839.0,2e-05,-9e-05,-0.00013,0.00014,8e-05,0.0,-0.00015,-1e-05,2.0
36840.0,2e-05,-9e-05,-0.00013,0.00014,8e-05,0.0,-0.00015,-1e-05,2.0
36841.0,2e-05,-9e-05,-0.00013,0.00014,8e-05,0.0,-0.00015,-1e-05,2.0
36842.0,2e-05,-9e-05,-0.00013,0.00014,8e-05,0.0,-0.00015,-1e-05,2.0
36843.0,2e-05,-9e-05,-0.00013,0.00014,8e-05,0.0,-0.00015,-1e-05,2.0
36844.0,2e-05,-9e-05,-0.00013,0.00014,8e-05,0.0,-0.00015,-1e-05,2.0
36845.0,2e-05,-9e-05,-0.00013,0.00014,8e-05,0.0,-0.00015,-1e-05,2.0
36846.0,2e-05,-9e-05,-0.00013,0.00014,8e-05,0.0,-0.00015,-1e-05,2.0
36847.0,2e-05,-9e-05,-0.00013,0.00014,8e-05,0.0,-0.00015,-1e-05,2.0
36848.0,2e-05,-9e-05,-0.00013,0.00014,8e-05,0.0,-0.00015,-1e-05,2.0
36849.0,2e-05,-9e-05,-0.00013,0.00014,8e-05,0.0,-0.00015,-1e-05,2.0
36850.0,2e-05,-9e-05,-0.00013,0.00014,8e-05,0.0,-0.00015,-1e-05,2.0
36851.0,0.00012,1e-05,-2e-05,-0.00016,-0.00013,-0.0001,-5e-05,8e-05,2.0
36852.0,-3e-05,-5e-05,-5e-05,-0.00011,-0.00012,-1e-05,-0.00016,0.0,2.0
36853.0,-3e-05,-5e-05,-5e-05,-0.00011,-0.00012,-1e-05,-0.00016,0.0,2.0
36854.0,-3e-05,-5e-05,-5e-05,-0.00011,-0.00012,-1e-05,-0.00016,0.0,2.0
36855.0,-3e-05,-5e-05,-5e-05,-0.00011,-0.00012,-1e-05,-0.00016,0.0,2.0
36856.0,-3e-05,-5e-05,-5e-05,-0.00011,-0.00012,-1e-05,-0.00016,0.0,2.0
36857.0,-3e-05,-5e-05,-5e-05,-0.00011,-0.00012,-1e-05,-0.00016,0.0,2.0
36858.0,-3e-05,-5e-05,-5e-05,-0.00011,-0.00012,-1e-05,-0.00016,0.0,2.0
36859.0,-3e-05,-5e-05,-5e-05,-0.00011,-0.00012,-1e-05,-0.00016,0.0,2.0
36860.0,-3e-05,-5e-05,-5e-05,-0.00011,-0.00012,-1e-05,-0.00016,0.0,2.0
36861.0,-3e-05,-5e-05,-5e-05,-0.00011,-0.00012,-1e-05,-0.00016,0.0,2.0
36862.0,-3e-05,-5e-05,-5e-05,-0.00011,-0.00012,-1e-05,-0.00016,0.0,2.0
36863.0,-3e-05,-5e-05,-5e-05,-0.00011,-0.00012,-1e-05,-0.00016,0.0,2.0
36864.0,-3e-05,-5e-05,-5e-05,-0.00011,-0.00012,-1e-05,-0.00016,0.0,2.0
36865.0,-3e-05,-5e-05,-5e-05,-0.00011,-0.00012,-1e-05,-0.00016,0.0,2.0
36866.0,-3e-05,-5e-05,-5e-05,-0.00011,-0.00012,-1e-05,-0.00016,0.0,2.0
36867.0,-3e-05,-5e-05,-5e-05,-0.00011,-0.00012,-1e-05,-0.00016,0.0,2.0
36868.0,-3e-05,-5e-05,-5e-05,-0.00011,-0.00012,-1e-05,-0.00016,0.0,2.0
36869.0,-3e-05,-5e-05,-5e-05,-0.00011,-0.00012,-1e-05,-0.00016,0.0,2.0
36870.0,-3e-05,-5e-05,-5e-05,-0.00011,-0.00012,-1e-05,-0.00016,0.0,2.0
36871.0,-3e-05,-5e-05,-5e-05,-0.00011,-0.00012,-1e-05,-0.00016,0.0,2.0
36872.0,-3e-05,-5e-05,-5e-05,-0.00011,-0.00012,-1e-05,-0.00016,0.0,2.0
36873.0,-5e-05,1e-05,-2e-05,-7e-05,-9e-05,1e-05,-0.00015,-9e-05,2.0
36874.0,-5e-05,1e-05,-2e-05,-7e-05,-9e-05,1e-05,-0.00015,-9e-05,2.0
36875.0,-6e-05,-6e-05,2e-05,0.0,0.0,-0.00016,-7e-05,-3e-05,2.0
36876.0,-6e-05,-6e-05,2e-05,0.0,0.0,-0.00016,-7e-05,-3e-05,2.0
36877.0,-6e-05,-6e-05,2e-05,0.0,0.0,-0.00016,-7e-05,-3e-05,2.0
