time,channel1,channel2,channel3,channel4,channel5,channel6,channel7,channel8,class
15863.0,-4e-05,1e-05,0.0,-4e-05,-0.0003,-3e-05,-0.0001,-0.00018,4.0
15864.0,-4e-05,1e-05,0.0,-4e-05,-0.0003,-3e-05,-0.0001,-0.00018,4.0
15865.0,-4e-05,1e-05,0.0,-4e-05,-0.0003,-3e-05,-0.0001,-0.00018,4.0
15866.0,-4e-05,1e-05,0.0,-4e-05,-0.0003,-3e-05,-0.0001,-0.00018,4.0
15867.0,-4e-05,1e-05,0.0,-4e-05,-0.0003,-3e-05,-0.0001,-0.00018,4.0
15868.0,-4e-05,1e-05,0.0,-4e-05,-0.0003,-3e-05,-0.0001,-0.00018,4.0
15869.0,-4e-05,1e-05,0.0,-4e-05,-0.0003,-3e-05,-0.0001,-0.00018,4.0
15870.0,-4e-05,1e-05,0.0,-4e-05,-0.0003,-3e-05,-0.0001,-0.00018,4.0
15871.0,-4e-05,1e-05,0.0,-4e-05,-0.0003,-3e-05,-0.0001,-0.00018,4.0
15872.0,-4e-05,1e-05,0.0,-4e-05,-0.0003,-3e-05,-0.0001,-0.00018,4.0
15873.0,-4e-05,1e-05,0.0,-4e-05,-0.0003,-3e-05,-0.0001,-0.00018,4.0
15874.0,-4e-05,1e-05,0.0,-4e-05,-0.0003,-3e-05,-0.0001,-0.00018,4.0
15875.0,-4e-05,1e-05,0.0,-4e-05,-0.0003,-3e-05,-0.0001,-0.00018,4.0
15876.0,-4e-05,1e-05,0.0,-4e-05,-0.0003,-3e-05,-0.0001,-0.00018,4.0
15877.0,-4e-05,1e-05,0.0,-4e-05,-0.0003,-3e-05,-0.0001,-0.00018,4.0
15878.0,-4e-05,1e-05,0.0,-4e-05,-0.0003,-3e-05,-0.0001,-0.00018,4.0
15879.0,-4e-05,1e-05,0.0,-4e-05,-0.0003,-3e-05,-0.0001,-0.00018,4.0
15880.0,-4e-05,1e-05,0.0,-4e-05,-0.0003,-3e-05,-0.0001,-0.00018,4.0
15881.0,-4e-05,1e-05,0.0,-4e-05,-0.0003,-3e-05,-0.0001,-0.00018,4.0
15882.0,-4e-05,1e-05,0.0,-4e-05,-0.0003,-3e-05,-0.0001,-0.00018,4.0
15883.0,-4e-05,1e-05,0.0,-4e-05,-0.0003,-3e-05,-0.0001,-0.00018,4.0
15884.0,-4e-05,1e-05,0.0,-4e-05,-0.0003,-3e-05,-0.0001,-0.00018,4.0
15885.0,-4e-05,1e-05,0.0,-4e-05,-0.0003,-3e-05,-0.0001,-0.00018,4.0
15886.0,9e-05,0.00013,0.00029,0.00063,0.00047,0.0003,0.00019,0.00011,4.0
15888.0,9e-05,0.00013,0.00029,0.00063,0.00047,0.0003,0.00019,0.00011,4.0
15889.0,9e-05,0.00013,0.00029,0.00063,0.00047,0.0003,0.00019,0.00011,4.0
15890.0,9e-05,0.00013,0.00029,0.00063,0.00047,0.0003,0.00019,0.00011,4.0
15891.0,9e-05,0.00013,0.00029,0.00063,0.00047,0.0003,0.00019,0.00011,4.0
15892.0,9e-05,0.00013,0.00029,0.00063,0.00047,0.0003,0.00019,0.00011,4.0
15894.0,9e-05,0.00013,0.00029,0.00063,0.00047,0.0003,0.00019,0.00011,4.0
15895.0,9e-05,0.00013,0.00029,0.00063,0.00047,0.0003,0.00019,0.00011,4.0
15896.0,9e-05,0.00013,0.00029,0.00063,0.00047,0.0003,0.00019,0.00011,4.0
15897.0,9e-05,0.00013,0.00029,0.00063,0.00047,0.0003,0.00019,0.00011,4.0
15898.0,9e-05,0.00013,0.00029,0.00063,0.00047,0.0003,0.00019,0.00011,4.0
15899.0,9e-05,0.00013,0.00029,0.00063,0.00047,0.0003,0.00019,0.00011,4.0
15900.0,9e-05,0.00013,0.00029,0.00063,0.00047,0.0003,0.00019,0.00011,4.0
15901.0,9e-05,0.00013,0.00029,0.00063,0.00047,0.0003,0.00019,0.00011,4.0
15902.0,9e-05,0.00013,0.00029,0.00063,0.00047,0.0003,0.00019,0.00011,4.0
15903.0,9e-05,0.00013,0.00029,0.00063,0.00047,0.0003,0.00019,0.00011,4.0
15904.0,9e-05,0.00013,0.00029,0.00063,0.00047,0.0003,0.00019,0.00011,4.0
15905.0,9e-05,0.00013,0.00029,0.00063,0.00047,0.0003,0.00019,0.00011,4.0
15906.0,9e-05,0.00013,0.00029,0.00063,0.00047,0.0003,0.00019,0.00011,4.0
15907.0,9e-05,0.00013,0.00029,0.00063,0.00047,0.0003,0.00019,0.00011,4.0
15908.0,1e-05,0.0,5e-05,0.00021,0.00027,-0.00016,-6e-05,3e-05,4.0
15909.0,1e-05,0.0,5e-05,0.00021,0.00027,-0.00016,-6e-05,3e-05,4.0
15910.0,1e-05,0.0,5e-05,0.00021,0.00027,-0.00016,-6e-05,3e-05,4.0
15911.0,1e-05,0.0,5e-05,0.00021,0.00027,-0.00016,-6e-05,3e-05,4.0
15912.0,1e-05,0.0,5e-05,0.00021,0.00027,-0.00016,-6e-05,3e-05,4.0
15913.0,1e-05,0.0,5e-05,0.00021,0.00027,-0.00016,-6e-05,3e-05,4.0
15914.0,1e-05,0.0,5e-05,0.00021,0.00027,-0.00016,-6e-05,3e-05,4.0
15915.0,1e-05,0.0,5e-05,0.00021,0.00027,-0.00016,-6e-05,3e-05,4.0
15916.0,1e-05,0.0,5e-05,0.00021,0.00027,-0.00016,-6e-05,3e-05,4.0
15917.0,1e-05,0.0,5e-05,0.00021,0.00027,-0.00016,-6e-05,3e-05,4.0
15918.0,1e-05,0.0,5e-05,0.00021,0.00027,-0.00016,-6e-05,3e-05,4.0
15919.0,1e-05,0.0,5e-05,0.00021,0.00027,-0.00016,-6e-05,3e-05,4.0
15920.0,1e-05,0.0,5e-05,0.00021,0.00027,-0.00016,-6e-05,3e-05,4.0
15921.0,1e-05,0.0,5e-05,0.00021,0.00027,-0.00016,-6e-05,3e-05,4.0
15922.0,1e-05,0.0,5e-05,0.00021,0.00027,-0.00016,-6e-05,3e-05,4.0
15924.0,1e-05,0.0,5e-05,0.00021,0.00027,-0.00016,-6e-05,3e-05,4.0
15925.0,1e-05,0.0,5e-05,0.00021,0.00027,-0.00016,-6e-05,3e-05,4.0
15926.0,1e-05,0.0,5e-05,0.00021,0.00027,-0.00016,-6e-05,3e-05,4.0
15927.0,1e-05,0.0,5e-05,0.00021,0.00027,-0.00016,-6e-05,3e-05,4.0
15928.0,1e-05,0.0,5e-05,0.00021,0.00027,-0.00016,-6e-05,3e-05,4.0
15929.0,1e-05,0.0,5e-05,0.00021,0.00027,-0.00016,-6e-05,3e-05,4.0
15930.0,1e-05,0.0,5e-05,0.00021,0.00027,-0.00016,-6e-05,3e-05,4.0
15931.0,1e-05,0.0,5e-05,0.00021,0.00027,-0.00016,-6e-05,3e-05,4.0
15932.0,1e-05,0.0,5e-05,0.00021,0.00027,-0.00016,-6e-05,3e-05,4.0
15933.0,1e-05,0.0,5e-05,0.00021,0.00027,-0.00016,-6e-05,3e-05,4.0
15934.0,1e-05,0.0,5e-05,0.00021,0.00027,-0.00016,-6e-05,3e-05,4.0
15935.0,1e-05,0.0,5e-05,0.00021,0.00027,-0.00016,-6e-05,3e-05,4.0
15936.0,1e-05,0.0,5e-05,0.00021,0.00027,-0.00016,-6e-05,3e-05,4.0
15939.0,1e-05,0.0,5e-05,0.00021,0.00027,-0.00016,-6e-05,3e-05,4.0
15940.0,1e-05,0.0,5e-05,0.00021,0.00027,-0.00016,-6e-05,3e-05,4.0
15941.0,1e-05,0.0,5e-05,0.00021,0.00027,-0.00016,-6e-05,3e-05,4.0
15942.0,1e-05,0.0,5e-05,0.00021,0.00027,-0.00016,-6e-05,3e-05,4.0
15943.0,1e-05,0.0,5e-05,0.00021,0.00027,-0.00016,-6e-05,3e-05,4.0
15944.0,1e-05,0.0,5e-05,0.00021,0.00027,-0.00016,-6e-05,3e-05,4.0
15945.0,1e-05,0.0,5e-05,0.00021,0.00027,-0.00016,-6e-05,3e-05,4.0
15946.0,1e-05,0.0,5e-05,0.00021,0.00027,-0.00016,-6e-05,3e-05,4.0
15947.0,1e-05,0.0,5e-05,0.00021,0.00027,-0.00016,-6e-05,3e-05,4.0
15948.0,1e-05,0.0,5e-05,0.00021,0.00027,-0.00016,-6e-05,3e-05,4.0
15949.0,1e-05,0.0,5e-05,0.00021,0.00027,-0.00016,-6e-05,3e-05,4.0
15950.0,1e-05,0.0,5e-05,0.00021,0.00027,-0.00016,-6e-05,3e-05,4.0
15951.0,1e-05,0.0,5e-05,0.00021,0.00027,-0.00016,-6e-05,3e-05,4.0
15952.0,1e-05,0.0,5e-05,0.00021,0.00027,-0.00016,-6e-05,3e-05,4.0
15953.0,1e-05,0.0,5e-05,0.00021,0.00027,-0.00016,-6e-05,3e-05,4.0
15954.0,1e-05,0.0,5e-05,0.00021,0.00027,-0.00016,-6e-05,3e-05,4.0
15955.0,1e-05,0.0,5e-05,0.00021,0.00027,-0.00016,-6e-05,3e-05,4.0
15956.0,1e-05,0.0,5e-05,0.00021,0.00027,-0.00016,-6e-05,3e-05,4.0
15957.0,1e-05,0.0,5e-05,0.00021,0.00027,-0.00016,-6e-05,3e-05,4.0
15958.0,1e-05,0.0,5e-05,0.00021,0.00027,-0.00016,-6e-05,3e-05,4.0
15959.0,1e-05,0.0,5e-05,0.00021,0.00027,-0.00016,-6e-05,3e-05,4.0
15960.0,1e-05,0.0,5e-05,0.00021,0.00027,-0.00016,-6e-05,3e-05,4.0
15961.0,1e-05,0.0,5e-05,0.00021,0.00027,-0.00016,-6e-05,3e-05,4.0
15962.0,1e-05,0.0,5e-05,0.00021,0.00027,-0.00016,-6e-05,3e-05,4.0
15963.0,2e-05,5e-05,0.0,-0.00021,-0.00024,-0.00013,2e-05,0.0,4.0
15964.0,-4e-05,-7e-05,7e-05,0.00029,0.00032,0.00012,4e-05,-2e-05,4.0
15965.0,-2e-05,5e-05,0.00011,0.00038,0.00068,-3e-05,-6e-05,-5e-05,4.0
15966.0,-2e-05,5e-05,0.00011,0.00038,0.00068,-3e-05,-6e-05,-5e-05,4.0
15967.0,-2e-05,5e-05,0.00011,0.00038,0.00068,-3e-05,-6e-05,-5e-05,4.0
15968.0,-2e-05,5e-05,0.00011,0.00038,0.00068,-3e-05,-6e-05,-5e-05,4.0
15969.0,-2e-05,5e-05,0.00011,0.00038,0.00068,-3e-05,-6e-05,-5e-05,4.0
15970.0,-2e-05,5e-05,0.00011,0.00038,0.00068,-3e-05,-6e-05,-5e-05,4.0
15971.0,-2e-05,5e-05,0.00011,0.00038,0.00068,-3e-05,-6e-05,-5e-05,4.0
15972.0,-2e-05,5e-05,0.00011,0.00038,0.00068,-3e-05,-6e-05,-5e-05,4.0
15973.0,-2e-05,5e-05,0.00011,0.00038,0.00068,-3e-05,-6e-05,-5e-05,4.0
15974.0,-2e-05,5e-05,0.00011,0.00038,0.00068,-3e-05,-6e-05,-5e-05,4.0
15975.0,-2e-05,5e-05,0.00011,0.00038,0.00068,-3e-05,-6e-05,-5e-05,4.0
15976.0,-2e-05,5e-05,0.00011,0.00038,0.00068,-3e-05,-6e-05,-5e-05,4.0
15977.0,-2e-05,5e-05,0.00011,0.00038,0.00068,-3e-05,-6e-05,-5e-05,4.0
15978.0,-2e-05,5e-05,0.00011,0.00038,0.00068,-3e-05,-6e-05,-5e-05,4.0
15979.0,-2e-05,5e-05,0.00011,0.00038,0.00068,-3e-05,-6e-05,-5e-05,4.0
15980.0,-2e-05,5e-05,0.00011,0.00038,0.00068,-3e-05,-6e-05,-5e-05,4.0
15981.0,-2e-05,5e-05,0.00011,0.00038,0.00068,-3e-05,-6e-05,-5e-05,4.0
15982.0,-2e-05,5e-05,0.00011,0.00038,0.00068,-3e-05,-6e-05,-5e-05,4.0
15983.0,-2e-05,5e-05,0.00011,0.00038,0.00068,-3e-05,-6e-05,-5e-05,4.0
15984.0,-2e-05,5e-05,0.00011,0.00038,0.00068,-3e-05,-6e-05,-5e-05,4.0
15985.0,8e-05,0.0001,0.00036,0.00052,0.00076,0.00039,0.00026,0.00015,4.0
15986.0,8e-05,0.0001,0.00036,0.00052,0.00076,0.00039,0.00026,0.00015,4.0
15988.0,0.0,0.0,-2e-05,9e-05,3e-05,0.00012,8e-05,4e-05,4.0
15990.0,0.0,0.0,-2e-05,9e-05,3e-05,0.00012,8e-05,4e-05,4.0
15991.0,0.0,0.0,-2e-05,9e-05,3e-05,0.00012,8e-05,4e-05,4.0
15992.0,0.0,0.0,-2e-05,9e-05,3e-05,0.00012,8e-05,4e-05,4.0
15993.0,0.0,0.0,-2e-05,9e-05,3e-05,0.00012,8e-05,4e-05,4.0
15994.0,0.0,0.0,-2e-05,9e-05,3e-05,0.00012,8e-05,4e-05,4.0
15995.0,0.0,0.0,-2e-05,9e-05,3e-05,0.00012,8e-05,4e-05,4.0
15996.0,0.0,0.0,-2e-05,9e-05,3e-05,0.00012,8e-05,4e-05,4.0
15997.0,0.0,0.0,-2e-05,9e-05,3e-05,0.00012,8e-05,4e-05,4.0
15998.0,0.0,0.0,-2e-05,9e-05,3e-05,0.00012,8e-05,4e-05,4.0
15999.0,0.0,0.0,-2e-05,9e-05,3e-05,0.00012,8e-05,4e-05,4.0
16000.0,0.0,0.0,-2e-05,9e-05,3e-05,0.00012,8e-05,4e-05,4.0
16001.0,0.0,0.0,-2e-05,9e-05,3e-05,0.00012,8e-05,4e-05,4.0
16002.0,0.0,0.0,-2e-05,9e-05,3e-05,0.00012,8e-05,4e-05,4.0
16003.0,0.0,0.0,-2e-05,9e-05,3e-05,0.00012,8e-05,4e-05,4.0
16004.0,0.0,0.0,-2e-05,9e-05,3e-05,0.00012,8e-05,4e-05,4.0
16005.0,0.0,0.0,-2e-05,9e-05,3e-05,0.00012,8e-05,4e-05,4.0
16006.0,0.0,0.0,-2e-05,9e-05,3e-05,0.00012,8e-05,4e-05,4.0
16007.0,0.0,0.0,-2e-05,9e-05,3e-05,0.00012,8e-05,4e-05,4.0
16008.0,0.0,0.0,-2e-05,9e-05,3e-05,0.00012,8e-05,4e-05,4.0
16009.0,0.0,0.0,-2e-05,9e-05,3e-05,0.00012,8e-05,4e-05,4.0
16010.0,0.0,0.0,-2e-05,9e-05,3e-05,0.00012,8e-05,4e-05,4.0
16011.0,0.0,0.0,-2e-05,9e-05,3e-05,0.00012,8e-05,4e-05,4.0
16012.0,0.0,0.0,-2e-05,9e-05,3e-05,0.00012,8e-05,4e-05,4.0
16013.0,0.0,0.0,-2e-05,9e-05,3e-05,0.00012,8e-05,4e-05,4.0
16014.0,0.0,0.0,-2e-05,9e-05,3e-05,0.00012,8e-05,4e-05,4.0
16015.0,0.0,0.0,-2e-05,9e-05,3e-05,0.00012,8e-05,4e-05,4.0
16016.0,0.0,0.0,-2e-05,9e-05,3e-05,0.00012,8e-05,4e-05,4.0
16017.0,0.0,0.0,-2e-05,9e-05,3e-05,0.00012,8e-05,4e-05,4.0
16018.0,0.0,0.0,-2e-05,9e-05,3e-05,0.00012,8e-05,4e-05,4.0
16019.0,0.0,0.0,-2e-05,9e-05,3e-05,0.00012,8e-05,4e-05,4.0
16020.0,0.0,0.0,-2e-05,9e-05,3e-05,0.00012,8e-05,4e-05,4.0
16021.0,0.0,0.0,-2e-05,9e-05,3e-05,0.00012,8e-05,4e-05,4.0
16022.0,0.0,0.0,-2e-05,9e-05,3e-05,0.00012,8e-05,4e-05,4.0
16023.0,0.0,0.0,-2e-05,9e-05,3e-05,0.00012,8e-05,4e-05,4.0
16024.0,0.0,0.0,-2e-05,9e-05,3e-05,0.00012,8e-05,4e-05,4.0
16025.0,0.0,0.0,-2e-05,9e-05,3e-05,0.00012,8e-05,4e-05,4.0
16026.0,0.0,0.0,-2e-05,9e-05,3e-05,0.00012,8e-05,4e-05,4.0
16027.0,0.0,0.0,-2e-05,9e-05,3e-05,0.00012,8e-05,4e-05,4.0
16028.0,0.0,0.0,-2e-05,9e-05,3e-05,0.00012,8e-05,4e-05,4.0
16029.0,0.0,0.0,-2e-05,9e-05,3e-05,0.00012,8e-05,4e-05,4.0
16030.0,0.0,0.0,-2e-05,9e-05,3e-05,0.00012,8e-05,4e-05,4.0
16031.0,0.0,0.0,-2e-05,9e-05,3e-05,0.00012,8e-05,4e-05,4.0
16032.0,0.0,0.0,-2e-05,9e-05,3e-05,0.00012,8e-05,4e-05,4.0
16033.0,0.0,0.0,-2e-05,9e-05,3e-05,0.00012,8e-05,4e-05,4.0
16034.0,0.0,0.0,-2e-05,9e-05,3e-05,0.00012,8e-05,4e-05,4.0
16035.0,0.0,0.0,-2e-05,9e-05,3e-05,0.00012,8e-05,4e-05,4.0
16036.0,0.0,0.0,-2e-05,9e-05,3e-05,0.00012,8e-05,4e-05,4.0
16039.0,-4e-05,0.0,2e-05,-0.00033,-0.00033,-0.00015,-0.0001,-0.00018,4.0
16040.0,-4e-05,0.0,2e-05,-0.00033,-0.00033,-0.00015,-0.0001,-0.00018,4.0
16041.0,-4e-05,0.0,2e-05,-0.00033,-0.00033,-0.00015,-0.0001,-0.00018,4.0
16042.0,-4e-05,0.0,2e-05,-0.00033,-0.00033,-0.00015,-0.0001,-0.00018,4.0
16043.0,-4e-05,0.0,2e-05,-0.00033,-0.00033,-0.00015,-0.0001,-0.00018,4.0
16044.0,-4e-05,0.0,2e-05,-0.00033,-0.00033,-0.00015,-0.0001,-0.00018,4.0
16045.0,-4e-05,0.0,2e-05,-0.00033,-0.00033,-0.00015,-0.0001,-0.00018,4.0
16046.0,-4e-05,0.0,2e-05,-0.00033,-0.00033,-0.00015,-0.0001,-0.00018,4.0
16047.0,-4e-05,0.0,2e-05,-0.00033,-0.00033,-0.00015,-0.0001,-0.00018,4.0
16048.0,-4e-05,0.0,2e-05,-0.00033,-0.00033,-0.00015,-0.0001,-0.00018,4.0
16049.0,-4e-05,0.0,2e-05,-0.00033,-0.00033,-0.00015,-0.0001,-0.00018,4.0
16050.0,-4e-05,0.0,2e-05,-0.00033,-0.00033,-0.00015,-0.0001,-0.00018,4.0
16051.0,-4e-05,0.0,2e-05,-0.00033,-0.00033,-0.00015,-0.0001,-0.00018,4.0
16052.0,-4e-05,0.0,2e-05,-0.00033,-0.00033,-0.00015,-0.0001,-0.00018,4.0
16053.0,-4e-05,0.0,2e-05,-0.00033,-0.00033,-0.00015,-0.0001,-0.00018,4.0
16054.0,-4e-05,0.0,2e-05,-0.00033,-0.00033,-0.00015,-0.0001,-0.00018,4.0
16055.0,-4e-05,0.0,2e-05,-0.00033,-0.00033,-0.00015,-0.0001,-0.00018,4.0
16056.0,-4e-05,0.0,2e-05,-0.00033,-0.00033,-0.00015,-0.0001,-0.00018,4.0
16057.0,-4e-05,0.0,2e-05,-0.00033,-0.00033,-0.00015,-0.0001,-0.00018,4.0
16058.0,-4e-05,0.0,2e-05,-0.00033,-0.00033,-0.00015,-0.0001,-0.00018,4.0
16059.0,-4e-05,0.0,2e-05,-0.00033,-0.00033,-0.00015,-0.0001,-0.00018,4.0
16060.0,-2e-05,-5e-05,0.00013,0.0006,0.00069,0.00035,0.00017,5e-05,4.0
16061.0,-3e-05,-2e-05,-7e-05,-0.00013,-0.00031,-9e-05,-0.00014,-6e-05,4.0
16062.0,0.00011,0.00012,3e-05,-0.0005,-0.00033,4e-05,0.00014,0.00011,4.0
16063.0,0.0,4e-05,5e-05,0.00038,3e-05,4e-05,0.0,-2e-05,4.0
16064.0,0.0,4e-05,5e-05,0.00038,3e-05,4e-05,0.0,-2e-05,4.0
16065.0,0.0,4e-05,5e-05,0.00038,3e-05,4e-05,0.0,-2e-05,4.0
16066.0,0.0,4e-05,5e-05,0.00038,3e-05,4e-05,0.0,-2e-05,4.0
16067.0,0.0,4e-05,5e-05,0.00038,3e-05,4e-05,0.0,-2e-05,4.0
16068.0,0.0,4e-05,5e-05,0.00038,3e-05,4e-05,0.0,-2e-05,4.0
16069.0,0.0,4e-05,5e-05,0.00038,3e-05,4e-05,0.0,-2e-05,4.0
16070.0,0.0,4e-05,5e-05,0.00038,3e-05,4e-05,0.0,-2e-05,4.0
16071.0,0.0,4e-05,5e-05,0.00038,3e-05,4e-05,0.0,-2e-05,4.0
16072.0,0.0,4e-05,5e-05,0.00038,3e-05,4e-05,0.0,-2e-05,4.0
16073.0,0.0,4e-05,5e-05,0.00038,3e-05,4e-05,0.0,-2e-05,4.0
16074.0,0.0,4e-05,5e-05,0.00038,3e-05,4e-05,0.0,-2e-05,4.0
16075.0,0.0,4e-05,5e-05,0.00038,3e-05,4e-05,0.0,-2e-05,4.0
16076.0,0.0,4e-05,5e-05,0.00038,3e-05,4e-05,0.0,-2e-05,4.0
16077.0,0.0,4e-05,5e-05,0.00038,3e-05,4e-05,0.0,-2e-05,4.0
16078.0,0.0,4e-05,5e-05,0.00038,3e-05,4e-05,0.0,-2e-05,4.0
16079.0,0.0,4e-05,5e-05,0.00038,3e-05,4e-05,0.0,-2e-05,4.0
16080.0,0.0,4e-05,5e-05,0.00038,3e-05,4e-05,0.0,-2e-05,4.0
16081.0,0.0,4e-05,5e-05,0.00038,3e-05,4e-05,0.0,-2e-05,4.0
16082.0,0.0,4e-05,5e-05,0.00038,3e-05,4e-05,0.0,-2e-05,4.0
16083.0,0.0,4e-05,5e-05,0.00038,3e-05,4e-05,0.0,-2e-05,4.0
16084.0,0.0,4e-05,5e-05,0.00038,3e-05,4e-05,0.0,-2e-05,4.0
16085.0,0.0,4e-05,5e-05,0.00038,3e-05,4e-05,0.0,-2e-05,4.0
16087.0,0.0,4e-05,5e-05,0.00038,3e-05,4e-05,0.0,-2e-05,4.0
16090.0,0.0,4e-05,5e-05,0.00038,3e-05,4e-05,0.0,-2e-05,4.0
16091.0,0.0,4e-05,5e-05,0.00038,3e-05,4e-05,0.0,-2e-05,4.0
16092.0,0.0,4e-05,5e-05,0.00038,3e-05,4e-05,0.0,-2e-05,4.0
16093.0,0.0,4e-05,5e-05,0.00038,3e-05,4e-05,0.0,-2e-05,4.0
16094.0,0.0,4e-05,5e-05,0.00038,3e-05,4e-05,0.0,-2e-05,4.0
16095.0,0.0,4e-05,5e-05,0.00038,3e-05,4e-05,0.0,-2e-05,4.0
16096.0,0.0,4e-05,5e-05,0.00038,3e-05,4e-05,0.0,-2e-05,4.0
16097.0,0.0,4e-05,5e-05,0.00038,3e-05,4e-05,0.0,-2e-05,4.0
16098.0,0.0,4e-05,5e-05,0.00038,3e-05,4e-05,0.0,-2e-05,4.0
16099.0,0.0,4e-05,5e-05,0.00038,3e-05,4e-05,0.0,-2e-05,4.0
16100.0,0.0,4e-05,5e-05,0.00038,3e-05,4e-05,0.0,-2e-05,4.0
16101.0,0.0,4e-05,5e-05,0.00038,3e-05,4e-05,0.0,-2e-05,4.0
16102.0,0.0,4e-05,5e-05,0.00038,3e-05,4e-05,0.0,-2e-05,4.0
16103.0,0.0,4e-05,5e-05,0.00038,3e-05,4e-05,0.0,-2e-05,4.0
16104.0,0.0,4e-05,5e-05,0.00038,3e-05,4e-05,0.0,-2e-05,4.0
16105.0,0.0,4e-05,5e-05,0.00038,3e-05,4e-05,0.0,-2e-05,4.0
16106.0,0.0,4e-05,5e-05,0.00038,3e-05,4e-05,0.0,-2e-05,4.0
16107.0,0.0,4e-05,5e-05,0.00038,3e-05,4e-05,0.0,-2e-05,4.0
16108.0,0.0,4e-05,5e-05,0.00038,3e-05,4e-05,0.0,-2e-05,4.0
16109.0,0.0,4e-05,5e-05,0.00038,3e-05,4e-05,0.0,-2e-05,4.0
16110.0,0.0,4e-05,5e-05,0.00038,3e-05,4e-05,0.0,-2e-05,4.0
16111.0,0.0,4e-05,5e-05,0.00038,3e-05,4e-05,0.0,-2e-05,4.0
16112.0,0.0,4e-05,5e-05,0.00038,3e-05,4e-05,0.0,-2e-05,4.0
16113.0,-0.0001,-0.00015,-0.00028,-0.00023,-0.00042,-0.00034,-0.00032,-0.00017,4.0
16114.0,-0.0001,-0.00015,-0.00028,-0.00023,-0.00042,-0.00034,-0.00032,-0.00017,4.0
16115.0,-0.0001,-0.00015,-0.00028,-0.00023,-0.00042,-0.00034,-0.00032,-0.00017,4.0
16116.0,-0.0001,-0.00015,-0.00028,-0.00023,-0.00042,-0.00034,-0.00032,-0.00017,4.0
16117.0,-0.0001,-0.00015,-0.00028,-0.00023,-0.00042,-0.00034,-0.00032,-0.00017,4.0
16118.0,-0.0001,-0.00015,-0.00028,-0.00023,-0.00042,-0.00034,-0.00032,-0.00017,4.0
16119.0,-0.0001,-0.00015,-0.00028,-0.00023,-0.00042,-0.00034,-0.00032,-0.00017,4.0
16120.0,-0.0001,-0.00015,-0.00028,-0.00023,-0.00042,-0.00034,-0.00032,-0.00017,4.0
16121.0,-0.0001,-0.00015,-0.00028,-0.00023,-0.00042,-0.00034,-0.00032,-0.00017,4.0
16122.0,-0.0001,-0.00015,-0.00028,-0.00023,-0.00042,-0.00034,-0.00032,-0.00017,4.0
16123.0,-0.0001,-0.00015,-0.00028,-0.00023,-0.00042,-0.00034,-0.00032,-0.00017,4.0
16124.0,-0.0001,-0.00015,-0.00028,-0.00023,-0.00042,-0.00034,-0.00032,-0.00017,4.0
16125.0,-0.0001,-0.00015,-0.00028,-0.00023,-0.00042,-0.00034,-0.00032,-0.00017,4.0
16126.0,-0.0001,-0.00015,-0.00028,-0.00023,-0.00042,-0.00034,-0.00032,-0.00017,4.0
16127.0,-0.0001,-0.00015,-0.00028,-0.00023,-0.00042,-0.00034,-0.00032,-0.00017,4.0
16128.0,-0.0001,-0.00015,-0.00028,-0.00023,-0.00042,-0.00034,-0.00032,-0.00017,4.0
16129.0,-0.0001,-0.00015,-0.00028,-0.00023,-0.00042,-0.00034,-0.00032,-0.00017,4.0
16130.0,-0.0001,-0.00015,-0.00028,-0.00023,-0.00042,-0.00034,-0.00032,-0.00017,4.0
16131.0,-0.0001,-0.00015,-0.00028,-0.00023,-0.00042,-0.00034,-0.00032,-0.00017,4.0
16132.0,-0.0001,-0.00015,-0.00028,-0.00023,-0.00042,-0.00034,-0.00032,-0.00017,4.0
16133.0,-0.0001,-0.00015,-0.00028,-0.00023,-0.00042,-0.00034,-0.00032,-0.00017,4.0
16134.0,-0.0001,-0.00015,-0.00028,-0.00023,-0.00042,-0.00034,-0.00032,-0.00017,4.0
16135.0,-2e-05,1e-05,-9e-05,-0.00029,-0.00031,-0.00019,-7e-05,-2e-05,4.0
16137.0,-2e-05,1e-05,-9e-05,-0.00029,-0.00031,-0.00019,-7e-05,-2e-05,4.0
16139.0,-4e-05,-9e-05,0.0,7e-05,-6e-05,-0.00022,-5e-05,-2e-05,4.0
16140.0,5e-05,9e-05,0.00016,0.00017,0.00013,0.0001,6e-05,1e-05,4.0
16141.0,5e-05,9e-05,0.00016,0.00017,0.00013,0.0001,6e-05,1e-05,4.0
16142.0,5e-05,9e-05,0.00016,0.00017,0.00013,0.0001,6e-05,1e-05,4.0
16143.0,5e-05,9e-05,0.00016,0.00017,0.00013,0.0001,6e-05,1e-05,4.0
16144.0,5e-05,9e-05,0.00016,0.00017,0.00013,0.0001,6e-05,1e-05,4.0
16145.0,5e-05,9e-05,0.00016,0.00017,0.00013,0.0001,6e-05,1e-05,4.0
16146.0,5e-05,9e-05,0.00016,0.00017,0.00013,0.0001,6e-05,1e-05,4.0
16147.0,5e-05,9e-05,0.00016,0.00017,0.00013,0.0001,6e-05,1e-05,4.0
16148.0,5e-05,9e-05,0.00016,0.00017,0.00013,0.0001,6e-05,1e-05,4.0
16149.0,5e-05,9e-05,0.00016,0.00017,0.00013,0.0001,6e-05,1e-05,4.0
16150.0,5e-05,9e-05,0.00016,0.00017,0.00013,0.0001,6e-05,1e-05,4.0
16151.0,5e-05,9e-05,0.00016,0.00017,0.00013,0.0001,6e-05,1e-05,4.0
16152.0,5e-05,9e-05,0.00016,0.00017,0.00013,0.0001,6e-05,1e-05,4.0
16153.0,5e-05,9e-05,0.00016,0.00017,0.00013,0.0001,6e-05,1e-05,4.0
16154.0,5e-05,9e-05,0.00016,0.00017,0.00013,0.0001,6e-05,1e-05,4.0
16155.0,5e-05,9e-05,0.00016,0.00017,0.00013,0.0001,6e-05,1e-05,4.0
16156.0,5e-05,9e-05,0.00016,0.00017,0.00013,0.0001,6e-05,1e-05,4.0
16157.0,5e-05,9e-05,0.00016,0.00017,0.00013,0.0001,6e-05,1e-05,4.0
16158.0,5e-05,9e-05,0.00016,0.00017,0.00013,0.0001,6e-05,1e-05,4.0
16159.0,5e-05,9e-05,0.00016,0.00017,0.00013,0.0001,6e-05,1e-05,4.0
16160.0,5e-05,9e-05,0.00016,0.00017,0.00013,0.0001,6e-05,1e-05,4.0
16161.0,5e-05,9e-05,0.00016,0.00017,0.00013,0.0001,6e-05,1e-05,4.0
16162.0,5e-05,9e-05,0.00016,0.00017,0.00013,0.0001,6e-05,1e-05,4.0
16163.0,5e-05,9e-05,0.00016,0.00017,0.00013,0.0001,6e-05,1e-05,4.0
16164.0,5e-05,9e-05,0.00016,0.00017,0.00013,0.0001,6e-05,1e-05,4.0
16165.0,5e-05,9e-05,0.00016,0.00017,0.00013,0.0001,6e-05,1e-05,4.0
16166.0,5e-05,9e-05,0.00016,0.00017,0.00013,0.0001,6e-05,1e-05,4.0
16167.0,5e-05,9e-05,0.00016,0.00017,0.00013,0.0001,6e-05,1e-05,4.0
16168.0,5e-05,9e-05,0.00016,0.00017,0.00013,0.0001,6e-05,1e-05,4.0
16169.0,5e-05,9e-05,0.00016,0.00017,0.00013,0.0001,6e-05,1e-05,4.0
16170.0,5e-05,9e-05,0.00016,0.00017,0.00013,0.0001,6e-05,1e-05,4.0
16171.0,5e-05,9e-05,0.00016,0.00017,0.00013,0.0001,6e-05,1e-05,4.0
16172.0,0.0,-1e-05,-8e-05,-0.00023,-0.00018,-0.00017,-4e-05,5e-05,4.0
16173.0,2e-05,-1e-05,-4e-05,0.00016,0.00046,0.00032,0.00013,8e-05,4.0
16174.0,-1e-05,-1e-05,-2e-05,-0.00017,-0.00022,-0.00023,-9e-05,-2e-05,4.0
16175.0,-1e-05,-1e-05,-2e-05,-0.00017,-0.00022,-0.00023,-9e-05,-2e-05,4.0
16176.0,-1e-05,-1e-05,-2e-05,-0.00017,-0.00022,-0.00023,-9e-05,-2e-05,4.0
16177.0,-1e-05,-1e-05,-2e-05,-0.00017,-0.00022,-0.00023,-9e-05,-2e-05,4.0
16178.0,-1e-05,-1e-05,-2e-05,-0.00017,-0.00022,-0.00023,-9e-05,-2e-05,4.0
16179.0,-1e-05,-1e-05,-2e-05,-0.00017,-0.00022,-0.00023,-9e-05,-2e-05,4.0
16180.0,-1e-05,-1e-05,-2e-05,-0.00017,-0.00022,-0.00023,-9e-05,-2e-05,4.0
16181.0,-1e-05,-1e-05,-2e-05,-0.00017,-0.00022,-0.00023,-9e-05,-2e-05,4.0
16182.0,-1e-05,-1e-05,-2e-05,-0.00017,-0.00022,-0.00023,-9e-05,-2e-05,4.0
16183.0,-1e-05,-1e-05,-2e-05,-0.00017,-0.00022,-0.00023,-9e-05,-2e-05,4.0
16184.0,-1e-05,-1e-05,-2e-05,-0.00017,-0.00022,-0.00023,-9e-05,-2e-05,4.0
16185.0,-1e-05,-1e-05,-2e-05,-0.00017,-0.00022,-0.00023,-9e-05,-2e-05,4.0
16186.0,-1e-05,-1e-05,-2e-05,-0.00017,-0.00022,-0.00023,-9e-05,-2e-05,4.0
16189.0,4e-05,9e-05,3e-05,-6e-05,-0.00021,0.00011,8e-05,3e-05,4.0
16190.0,4e-05,9e-05,3e-05,-6e-05,-0.00021,0.00011,8e-05,3e-05,4.0
16191.0,-0.00011,-0.00019,-0.00011,3e-05,8e-05,0.00012,-5e-05,-6e-05,4.0
16192.0,-0.00011,-0.00019,-0.00011,3e-05,8e-05,0.00012,-5e-05,-6e-05,4.0
16193.0,1e-05,-3e-05,3e-05,6e-05,4e-05,1e-05,0.0,0.0,4.0
16194.0,1e-05,-3e-05,3e-05,6e-05,4e-05,1e-05,0.0,0.0,4.0
16195.0,1e-05,-3e-05,3e-05,6e-05,4e-05,1e-05,0.0,0.0,4.0
16196.0,1e-05,-3e-05,3e-05,6e-05,4e-05,1e-05,0.0,0.0,4.0
16197.0,1e-05,-3e-05,3e-05,6e-05,4e-05,1e-05,0.0,0.0,4.0
16198.0,1e-05,-3e-05,3e-05,6e-05,4e-05,1e-05,0.0,0.0,4.0
16199.0,1e-05,-3e-05,3e-05,6e-05,4e-05,1e-05,0.0,0.0,4.0
16200.0,1e-05,-3e-05,3e-05,6e-05,4e-05,1e-05,0.0,0.0,4.0
16201.0,1e-05,-3e-05,3e-05,6e-05,4e-05,1e-05,0.0,0.0,4.0
16202.0,1e-05,-3e-05,3e-05,6e-05,4e-05,1e-05,0.0,0.0,4.0
16203.0,1e-05,-3e-05,3e-05,6e-05,4e-05,1e-05,0.0,0.0,4.0
16204.0,1e-05,-3e-05,3e-05,6e-05,4e-05,1e-05,0.0,0.0,4.0
16205.0,1e-05,-3e-05,3e-05,6e-05,4e-05,1e-05,0.0,0.0,4.0
16206.0,1e-05,-3e-05,3e-05,6e-05,4e-05,1e-05,0.0,0.0,4.0
16207.0,1e-05,-3e-05,3e-05,6e-05,4e-05,1e-05,0.0,0.0,4.0
16208.0,5e-05,0.00013,0.00031,0.00051,0.00045,0.00033,0.00014,8e-05,4.0
16209.0,-4e-05,-4e-05,-0.0001,-0.00016,-0.00017,-0.00016,-9e-05,-7e-05,4.0
16210.0,-4e-05,-4e-05,-0.0001,-0.00016,-0.00017,-0.00016,-9e-05,-7e-05,4.0
16211.0,-4e-05,-4e-05,-0.0001,-0.00016,-0.00017,-0.00016,-9e-05,-7e-05,4.0
16212.0,-4e-05,-4e-05,-0.0001,-0.00016,-0.00017,-0.00016,-9e-05,-7e-05,4.0
16213.0,-4e-05,-4e-05,-0.0001,-0.00016,-0.00017,-0.00016,-9e-05,-7e-05,4.0
16214.0,-4e-05,-4e-05,-0.0001,-0.00016,-0.00017,-0.00016,-9e-05,-7e-05,4.0
16215.0,-4e-05,-4e-05,-0.0001,-0.00016,-0.00017,-0.00016,-9e-05,-7e-05,4.0
16216.0,-4e-05,-4e-05,-0.0001,-0.00016,-0.00017,-0.00016,-9e-05,-7e-05,4.0
16217.0,-4e-05,-4e-05,-0.0001,-0.00016,-0.00017,-0.00016,-9e-05,-7e-05,4.0
16218.0,-4e-05,-4e-05,-0.0001,-0.00016,-0.00017,-0.00016,-9e-05,-7e-05,4.0
16219.0,-4e-05,-4e-05,-0.0001,-0.00016,-0.00017,-0.00016,-9e-05,-7e-05,4.0
16220.0,-4e-05,-4e-05,-0.0001,-0.00016,-0.00017,-0.00016,-9e-05,-7e-05,4.0
16221.0,-4e-05,-4e-05,-0.0001,-0.00016,-0.00017,-0.00016,-9e-05,-7e-05,4.0
16222.0,-4e-05,-4e-05,-0.0001,-0.00016,-0.00017,-0.00016,-9e-05,-7e-05,4.0
16223.0,-4e-05,-4e-05,-0.0001,-0.00016,-0.00017,-0.00016,-9e-05,-7e-05,4.0
16224.0,-4e-05,-4e-05,-0.0001,-0.00016,-0.00017,-0.00016,-9e-05,-7e-05,4.0
16225.0,-4e-05,-4e-05,-0.0001,-0.00016,-0.00017,-0.00016,-9e-05,-7e-05,4.0
16226.0,-4e-05,-4e-05,-0.0001,-0.00016,-0.00017,-0.00016,-9e-05,-7e-05,4.0
16227.0,-4e-05,-4e-05,-0.0001,-0.00016,-0.00017,-0.00016,-9e-05,-7e-05,4.0
16228.0,-4e-05,-4e-05,-0.0001,-0.00016,-0.00017,-0.00016,-9e-05,-7e-05,4.0
16229.0,-4e-05,-4e-05,-0.0001,-0.00016,-0.00017,-0.00016,-9e-05,-7e-05,4.0
16230.0,-4e-05,-4e-05,-0.0001,-0.00016,-0.00017,-0.00016,-9e-05,-7e-05,4.0
16231.0,-4e-05,-4e-05,-0.0001,-0.00016,-0.00017,-0.00016,-9e-05,-7e-05,4.0
16232.0,-4e-05,-4e-05,-0.0001,-0.00016,-0.00017,-0.00016,-9e-05,-7e-05,4.0
16233.0,-4e-05,-4e-05,-0.0001,-0.00016,-0.00017,-0.00016,-9e-05,-7e-05,4.0
16234.0,-4e-05,-4e-05,-0.0001,-0.00016,-0.00017,-0.00016,-9e-05,-7e-05,4.0
16235.0,-4e-05,-4e-05,-0.0001,-0.00016,-0.00017,-0.00016,-9e-05,-7e-05,4.0
16236.0,-4e-05,-4e-05,-0.0001,-0.00016,-0.00017,-0.00016,-9e-05,-7e-05,4.0
16239.0,1e-05,-0.0001,-0.00011,-5e-05,-1e-05,-9e-05,1e-05,4e-05,4.0
16240.0,1e-05,-0.0001,-0.00011,-5e-05,-1e-05,-9e-05,1e-05,4e-05,4.0
16241.0,1e-05,-0.0001,-0.00011,-5e-05,-1e-05,-9e-05,1e-05,4e-05,4.0
16242.0,1e-05,-0.0001,-0.00011,-5e-05,-1e-05,-9e-05,1e-05,4e-05,4.0
16243.0,1e-05,-0.0001,-0.00011,-5e-05,-1e-05,-9e-05,1e-05,4e-05,4.0
16244.0,1e-05,-0.0001,-0.00011,-5e-05,-1e-05,-9e-05,1e-05,4e-05,4.0
16245.0,5e-05,4e-05,-7e-05,-0.00017,-0.00019,0.00013,9e-05,-3e-05,4.0
16246.0,0.0,-8e-05,-0.0001,-7e-05,-0.00044,-0.00011,-1e-05,-3e-05,4.0
16247.0,0.0,-8e-05,-0.0001,-7e-05,-0.00044,-0.00011,-1e-05,-3e-05,4.0
16248.0,0.0,-8e-05,-0.0001,-7e-05,-0.00044,-0.00011,-1e-05,-3e-05,4.0
16249.0,0.0,-8e-05,-0.0001,-7e-05,-0.00044,-0.00011,-1e-05,-3e-05,4.0
16250.0,0.0,-8e-05,-0.0001,-7e-05,-0.00044,-0.00011,-1e-05,-3e-05,4.0
16251.0,0.0,-8e-05,-0.0001,-7e-05,-0.00044,-0.00011,-1e-05,-3e-05,4.0
16252.0,0.0,-8e-05,-0.0001,-7e-05,-0.00044,-0.00011,-1e-05,-3e-05,4.0
16253.0,0.0,-8e-05,-0.0001,-7e-05,-0.00044,-0.00011,-1e-05,-3e-05,4.0
16254.0,0.0,-8e-05,-0.0001,-7e-05,-0.00044,-0.00011,-1e-05,-3e-05,4.0
16255.0,0.0,-8e-05,-0.0001,-7e-05,-0.00044,-0.00011,-1e-05,-3e-05,4.0
16256.0,0.0,-8e-05,-0.0001,-7e-05,-0.00044,-0.00011,-1e-05,-3e-05,4.0
16257.0,0.0,-8e-05,-0.0001,-7e-05,-0.00044,-0.00011,-1e-05,-3e-05,4.0
16258.0,0.0,-8e-05,-0.0001,-7e-05,-0.00044,-0.00011,-1e-05,-3e-05,4.0
16259.0,0.0,-8e-05,-0.0001,-7e-05,-0.00044,-0.00011,-1e-05,-3e-05,4.0
16260.0,0.0,-8e-05,-0.0001,-7e-05,-0.00044,-0.00011,-1e-05,-3e-05,4.0
16261.0,0.0,-8e-05,-0.0001,-7e-05,-0.00044,-0.00011,-1e-05,-3e-05,4.0
16262.0,0.0,-8e-05,-0.0001,-7e-05,-0.00044,-0.00011,-1e-05,-3e-05,4.0
16263.0,0.0,-8e-05,-0.0001,-7e-05,-0.00044,-0.00011,-1e-05,-3e-05,4.0
16264.0,0.0,-8e-05,-0.0001,-7e-05,-0.00044,-0.00011,-1e-05,-3e-05,4.0
16265.0,0.0,-8e-05,-0.0001,-7e-05,-0.00044,-0.00011,-1e-05,-3e-05,4.0
16266.0,0.0,-8e-05,-0.0001,-7e-05,-0.00044,-0.00011,-1e-05,-3e-05,4.0
16267.0,0.0,-8e-05,-0.0001,-7e-05,-0.00044,-0.00011,-1e-05,-3e-05,4.0
16268.0,0.00012,0.00021,0.00028,0.00032,0.00047,0.0002,0.00016,0.00014,4.0
16269.0,-0.0001,-2e-05,6e-05,-0.00047,-0.00063,-0.00019,-0.00021,-0.00011,4.0
16270.0,-0.0001,-2e-05,6e-05,-0.00047,-0.00063,-0.00019,-0.00021,-0.00011,4.0
16271.0,-0.0001,-2e-05,6e-05,-0.00047,-0.00063,-0.00019,-0.00021,-0.00011,4.0
16272.0,-0.0001,-2e-05,6e-05,-0.00047,-0.00063,-0.00019,-0.00021,-0.00011,4.0
16274.0,-0.0001,-2e-05,6e-05,-0.00047,-0.00063,-0.00019,-0.00021,-0.00011,4.0
16275.0,-0.0001,-2e-05,6e-05,-0.00047,-0.00063,-0.00019,-0.00021,-0.00011,4.0
16276.0,-0.0001,-2e-05,6e-05,-0.00047,-0.00063,-0.00019,-0.00021,-0.00011,4.0
16277.0,-0.0001,-2e-05,6e-05,-0.00047,-0.00063,-0.00019,-0.00021,-0.00011,4.0
16278.0,-0.0001,-2e-05,6e-05,-0.00047,-0.00063,-0.00019,-0.00021,-0.00011,4.0
16279.0,-0.0001,-2e-05,6e-05,-0.00047,-0.00063,-0.00019,-0.00021,-0.00011,4.0
16280.0,-0.0001,-2e-05,6e-05,-0.00047,-0.00063,-0.00019,-0.00021,-0.00011,4.0
16281.0,-0.0001,-2e-05,6e-05,-0.00047,-0.00063,-0.00019,-0.00021,-0.00011,4.0
16282.0,-0.0001,-2e-05,6e-05,-0.00047,-0.00063,-0.00019,-0.00021,-0.00011,4.0
16283.0,-0.0001,-2e-05,6e-05,-0.00047,-0.00063,-0.00019,-0.00021,-0.00011,4.0
16285.0,-0.0001,-2e-05,6e-05,-0.00047,-0.00063,-0.00019,-0.00021,-0.00011,4.0
16286.0,-0.0001,-2e-05,6e-05,-0.00047,-0.00063,-0.00019,-0.00021,-0.00011,4.0
16288.0,-0.0001,-2e-05,6e-05,-0.00047,-0.00063,-0.00019,-0.00021,-0.00011,4.0
16289.0,-0.0001,-2e-05,6e-05,-0.00047,-0.00063,-0.00019,-0.00021,-0.00011,4.0
16290.0,-0.0001,-2e-05,6e-05,-0.00047,-0.00063,-0.00019,-0.00021,-0.00011,4.0
16291.0,-0.0001,-2e-05,6e-05,-0.00047,-0.00063,-0.00019,-0.00021,-0.00011,4.0
16292.0,-0.0001,-2e-05,6e-05,-0.00047,-0.00063,-0.00019,-0.00021,-0.00011,4.0
16293.0,-0.0001,-2e-05,6e-05,-0.00047,-0.00063,-0.00019,-0.00021,-0.00011,4.0
16294.0,-0.0001,-2e-05,6e-05,-0.00047,-0.00063,-0.00019,-0.00021,-0.00011,4.0
16295.0,-0.0001,-2e-05,6e-05,-0.00047,-0.00063,-0.00019,-0.00021,-0.00011,4.0
16296.0,-0.0001,-2e-05,6e-05,-0.00047,-0.00063,-0.00019,-0.00021,-0.00011,4.0
16297.0,-0.0001,-2e-05,6e-05,-0.00047,-0.00063,-0.00019,-0.00021,-0.00011,4.0
16298.0,-0.0001,-2e-05,6e-05,-0.00047,-0.00063,-0.00019,-0.00021,-0.00011,4.0
16299.0,-0.00015,-0.00023,-0.00045,-0.00041,-0.00072,-0.00053,-0.00019,-0.00015,4.0
16300.0,7e-05,0.00018,0.00035,0.00072,0.00075,9e-05,4e-05,3e-05,4.0
16301.0,-8e-05,-7e-05,-3e-05,8e-05,0.00021,-2e-05,-3e-05,-2e-05,4.0
16302.0,-8e-05,-7e-05,-3e-05,8e-05,0.00021,-2e-05,-3e-05,-2e-05,4.0
16303.0,-8e-05,-7e-05,-3e-05,8e-05,0.00021,-2e-05,-3e-05,-2e-05,4.0
16304.0,-8e-05,-7e-05,-3e-05,8e-05,0.00021,-2e-05,-3e-05,-2e-05,4.0
16305.0,-8e-05,-7e-05,-3e-05,8e-05,0.00021,-2e-05,-3e-05,-2e-05,4.0
16306.0,-8e-05,-7e-05,-3e-05,8e-05,0.00021,-2e-05,-3e-05,-2e-05,4.0
16307.0,-8e-05,-7e-05,-3e-05,8e-05,0.00021,-2e-05,-3e-05,-2e-05,4.0
16308.0,-8e-05,-7e-05,-3e-05,8e-05,0.00021,-2e-05,-3e-05,-2e-05,4.0
16309.0,-8e-05,-7e-05,-3e-05,8e-05,0.00021,-2e-05,-3e-05,-2e-05,4.0
16310.0,-8e-05,-7e-05,-3e-05,8e-05,0.00021,-2e-05,-3e-05,-2e-05,4.0
16311.0,-8e-05,-7e-05,-3e-05,8e-05,0.00021,-2e-05,-3e-05,-2e-05,4.0
16312.0,-8e-05,-7e-05,-3e-05,8e-05,0.00021,-2e-05,-3e-05,-2e-05,4.0
16313.0,-8e-05,-7e-05,-3e-05,8e-05,0.00021,-2e-05,-3e-05,-2e-05,4.0
16314.0,-2e-05,1e-05,5e-05,0.00011,0.0001,0.00012,-1e-05,2e-05,4.0
16315.0,2e-05,6e-05,5e-05,0.00015,8e-05,-0.00017,-5e-05,-2e-05,4.0
16316.0,2e-05,6e-05,5e-05,0.00015,8e-05,-0.00017,-5e-05,-2e-05,4.0
16317.0,2e-05,6e-05,5e-05,0.00015,8e-05,-0.00017,-5e-05,-2e-05,4.0
16318.0,2e-05,6e-05,5e-05,0.00015,8e-05,-0.00017,-5e-05,-2e-05,4.0
16319.0,2e-05,6e-05,5e-05,0.00015,8e-05,-0.00017,-5e-05,-2e-05,4.0
16320.0,2e-05,6e-05,5e-05,0.00015,8e-05,-0.00017,-5e-05,-2e-05,4.0
16321.0,2e-05,6e-05,5e-05,0.00015,8e-05,-0.00017,-5e-05,-2e-05,4.0
16322.0,2e-05,6e-05,5e-05,0.00015,8e-05,-0.00017,-5e-05,-2e-05,4.0
16323.0,2e-05,6e-05,5e-05,0.00015,8e-05,-0.00017,-5e-05,-2e-05,4.0
16324.0,2e-05,6e-05,5e-05,0.00015,8e-05,-0.00017,-5e-05,-2e-05,4.0
16325.0,2e-05,6e-05,5e-05,0.00015,8e-05,-0.00017,-5e-05,-2e-05,4.0
16326.0,2e-05,6e-05,5e-05,0.00015,8e-05,-0.00017,-5e-05,-2e-05,4.0
16327.0,2e-05,6e-05,5e-05,0.00015,8e-05,-0.00017,-5e-05,-2e-05,4.0
16328.0,-0.00017,-0.0003,-0.00034,-0.00049,-0.0007,-0.0004,-0.00025,-0.00015,4.0
16329.0,-1e-05,-1e-05,0.00011,0.00024,0.00023,0.0001,1e-05,1e-05,4.0
16331.0,-1e-05,-1e-05,0.00011,0.00024,0.00023,0.0001,1e-05,1e-05,4.0
16332.0,-1e-05,-1e-05,0.00011,0.00024,0.00023,0.0001,1e-05,1e-05,4.0
16333.0,-1e-05,-1e-05,0.00011,0.00024,0.00023,0.0001,1e-05,1e-05,4.0
16334.0,-1e-05,-1e-05,0.00011,0.00024,0.00023,0.0001,1e-05,1e-05,4.0
16335.0,-1e-05,-1e-05,0.00011,0.00024,0.00023,0.0001,1e-05,1e-05,4.0
16337.0,-1e-05,-1e-05,0.00011,0.00024,0.00023,0.0001,1e-05,1e-05,4.0
16339.0,-1e-05,-1e-05,0.00011,0.00024,0.00023,0.0001,1e-05,1e-05,4.0
16340.0,-1e-05,-1e-05,0.00011,0.00024,0.00023,0.0001,1e-05,1e-05,4.0
16341.0,-1e-05,-1e-05,0.00011,0.00024,0.00023,0.0001,1e-05,1e-05,4.0
16342.0,-1e-05,-1e-05,0.00011,0.00024,0.00023,0.0001,1e-05,1e-05,4.0
16343.0,-1e-05,-1e-05,0.00011,0.00024,0.00023,0.0001,1e-05,1e-05,4.0
16344.0,-1e-05,-1e-05,0.00011,0.00024,0.00023,0.0001,1e-05,1e-05,4.0
16345.0,-1e-05,-1e-05,0.00011,0.00024,0.00023,0.0001,1e-05,1e-05,4.0
16346.0,-1e-05,-1e-05,0.00011,0.00024,0.00023,0.0001,1e-05,1e-05,4.0
16347.0,-1e-05,-1e-05,0.00011,0.00024,0.00023,0.0001,1e-05,1e-05,4.0
16348.0,-1e-05,-1e-05,0.00011,0.00024,0.00023,0.0001,1e-05,1e-05,4.0
16349.0,-1e-05,-1e-05,0.00011,0.00024,0.00023,0.0001,1e-05,1e-05,4.0
16350.0,-1e-05,-1e-05,0.00011,0.00024,0.00023,0.0001,1e-05,1e-05,4.0
16351.0,-4e-05,-0.00012,-0.0001,-5e-05,0.00012,-0.00013,2e-05,7e-05,4.0
16352.0,5e-05,5e-05,4e-05,0.00015,-3e-05,-6e-05,-6e-05,0.0,4.0
16353.0,5e-05,5e-05,4e-05,0.00015,-3e-05,-6e-05,-6e-05,0.0,4.0
16354.0,5e-05,5e-05,4e-05,0.00015,-3e-05,-6e-05,-6e-05,0.0,4.0
16355.0,5e-05,5e-05,4e-05,0.00015,-3e-05,-6e-05,-6e-05,0.0,4.0
16356.0,5e-05,5e-05,4e-05,0.00015,-3e-05,-6e-05,-6e-05,0.0,4.0
16357.0,5e-05,5e-05,4e-05,0.00015,-3e-05,-6e-05,-6e-05,0.0,4.0
16358.0,5e-05,5e-05,4e-05,0.00015,-3e-05,-6e-05,-6e-05,0.0,4.0
16359.0,5e-05,5e-05,4e-05,0.00015,-3e-05,-6e-05,-6e-05,0.0,4.0
16360.0,5e-05,5e-05,4e-05,0.00015,-3e-05,-6e-05,-6e-05,0.0,4.0
16361.0,5e-05,5e-05,4e-05,0.00015,-3e-05,-6e-05,-6e-05,0.0,4.0
16362.0,5e-05,5e-05,4e-05,0.00015,-3e-05,-6e-05,-6e-05,0.0,4.0
16363.0,5e-05,5e-05,4e-05,0.00015,-3e-05,-6e-05,-6e-05,0.0,4.0
16364.0,5e-05,5e-05,4e-05,0.00015,-3e-05,-6e-05,-6e-05,0.0,4.0
16365.0,5e-05,5e-05,4e-05,0.00015,-3e-05,-6e-05,-6e-05,0.0,4.0
16366.0,-3e-05,-5e-05,-0.00011,-0.00022,-7e-05,0.0,0.0,-3e-05,4.0
16367.0,-7e-05,-9e-05,-0.0001,-0.00028,-4e-05,0.00011,0.00011,0.0,4.0
16368.0,-7e-05,-9e-05,-0.0001,-0.00028,-4e-05,0.00011,0.00011,0.0,4.0
16369.0,-7e-05,-9e-05,-0.0001,-0.00028,-4e-05,0.00011,0.00011,0.0,4.0
16370.0,-7e-05,-9e-05,-0.0001,-0.00028,-4e-05,0.00011,0.00011,0.0,4.0
16371.0,-7e-05,-9e-05,-0.0001,-0.00028,-4e-05,0.00011,0.00011,0.0,4.0
16372.0,-7e-05,-9e-05,-0.0001,-0.00028,-4e-05,0.00011,0.00011,0.0,4.0
16373.0,-7e-05,-9e-05,-0.0001,-0.00028,-4e-05,0.00011,0.00011,0.0,4.0
16374.0,-7e-05,-9e-05,-0.0001,-0.00028,-4e-05,0.00011,0.00011,0.0,4.0
16375.0,-7e-05,-9e-05,-0.0001,-0.00028,-4e-05,0.00011,0.00011,0.0,4.0
16376.0,-7e-05,-9e-05,-0.0001,-0.00028,-4e-05,0.00011,0.00011,0.0,4.0
16377.0,-7e-05,-9e-05,-0.0001,-0.00028,-4e-05,0.00011,0.00011,0.0,4.0
16379.0,-7e-05,-9e-05,-0.0001,-0.00028,-4e-05,0.00011,0.00011,0.0,4.0
16380.0,-7e-05,-9e-05,-0.0001,-0.00028,-4e-05,0.00011,0.00011,0.0,4.0
16381.0,-7e-05,-9e-05,-0.0001,-0.00028,-4e-05,0.00011,0.00011,0.0,4.0
16382.0,-7e-05,-9e-05,-0.0001,-0.00028,-4e-05,0.00011,0.00011,0.0,4.0
16383.0,-7e-05,-9e-05,-0.0001,-0.00028,-4e-05,0.00011,0.00011,0.0,4.0
16384.0,-7e-05,-9e-05,-0.0001,-0.00028,-4e-05,0.00011,0.00011,0.0,4.0
16385.0,-7e-05,-9e-05,-0.0001,-0.00028,-4e-05,0.00011,0.00011,0.0,4.0
16387.0,-7e-05,-9e-05,-0.0001,-0.00028,-4e-05,0.00011,0.00011,0.0,4.0
16390.0,-2e-05,1e-05,-5e-05,-0.00016,-9e-05,-6e-05,-8e-05,-9e-05,4.0
16391.0,-2e-05,1e-05,-5e-05,-0.00016,-9e-05,-6e-05,-8e-05,-9e-05,4.0
16392.0,-2e-05,1e-05,-5e-05,-0.00016,-9e-05,-6e-05,-8e-05,-9e-05,4.0
16393.0,-2e-05,1e-05,-5e-05,-0.00016,-9e-05,-6e-05,-8e-05,-9e-05,4.0
16394.0,-2e-05,1e-05,-5e-05,-0.00016,-9e-05,-6e-05,-8e-05,-9e-05,4.0
16395.0,-2e-05,1e-05,-5e-05,-0.00016,-9e-05,-6e-05,-8e-05,-9e-05,4.0
16396.0,-2e-05,1e-05,-5e-05,-0.00016,-9e-05,-6e-05,-8e-05,-9e-05,4.0
16397.0,-2e-05,1e-05,-5e-05,-0.00016,-9e-05,-6e-05,-8e-05,-9e-05,4.0
16398.0,-2e-05,1e-05,-5e-05,-0.00016,-9e-05,-6e-05,-8e-05,-9e-05,4.0
16399.0,-2e-05,1e-05,-5e-05,-0.00016,-9e-05,-6e-05,-8e-05,-9e-05,4.0
16400.0,-2e-05,1e-05,-5e-05,-0.00016,-9e-05,-6e-05,-8e-05,-9e-05,4.0
16401.0,-2e-05,1e-05,-5e-05,-0.00016,-9e-05,-6e-05,-8e-05,-9e-05,4.0
16402.0,-2e-05,1e-05,-5e-05,-0.00016,-9e-05,-6e-05,-8e-05,-9e-05,4.0
16403.0,-2e-05,1e-05,-5e-05,-0.00016,-9e-05,-6e-05,-8e-05,-9e-05,4.0
16404.0,-2e-05,1e-05,-5e-05,-0.00016,-9e-05,-6e-05,-8e-05,-9e-05,4.0
16405.0,-2e-05,1e-05,-5e-05,-0.00016,-9e-05,-6e-05,-8e-05,-9e-05,4.0
16406.0,-2e-05,1e-05,-5e-05,-0.00016,-9e-05,-6e-05,-8e-05,-9e-05,4.0
16407.0,-2e-05,1e-05,-5e-05,-0.00016,-9e-05,-6e-05,-8e-05,-9e-05,4.0
16408.0,-2e-05,1e-05,-5e-05,-0.00016,-9e-05,-6e-05,-8e-05,-9e-05,4.0
16409.0,-2e-05,1e-05,-5e-05,-0.00016,-9e-05,-6e-05,-8e-05,-9e-05,4.0
16410.0,-2e-05,1e-05,-5e-05,-0.00016,-9e-05,-6e-05,-8e-05,-9e-05,4.0
16411.0,-2e-05,1e-05,-5e-05,-0.00016,-9e-05,-6e-05,-8e-05,-9e-05,4.0
16412.0,-2e-05,1e-05,-5e-05,-0.00016,-9e-05,-6e-05,-8e-05,-9e-05,4.0
16413.0,-2e-05,1e-05,-5e-05,-0.00016,-9e-05,-6e-05,-8e-05,-9e-05,4.0
16414.0,-2e-05,1e-05,-5e-05,-0.00016,-9e-05,-6e-05,-8e-05,-9e-05,4.0
16415.0,-2e-05,1e-05,-5e-05,-0.00016,-9e-05,-6e-05,-8e-05,-9e-05,4.0
16416.0,-2e-05,1e-05,-5e-05,-0.00016,-9e-05,-6e-05,-8e-05,-9e-05,4.0
16417.0,-2e-05,1e-05,-5e-05,-0.00016,-9e-05,-6e-05,-8e-05,-9e-05,4.0
16418.0,-2e-05,1e-05,-5e-05,-0.00016,-9e-05,-6e-05,-8e-05,-9e-05,4.0
16419.0,3e-05,8e-05,0.00017,0.00036,0.00031,0.00013,7e-05,2e-05,4.0
16420.0,-4e-05,-9e-05,-0.00017,-0.00053,-0.00086,5e-05,5e-05,1e-05,4.0
16421.0,-4e-05,-9e-05,-0.00017,-0.00053,-0.00086,5e-05,5e-05,1e-05,4.0
16422.0,-4e-05,-9e-05,-0.00017,-0.00053,-0.00086,5e-05,5e-05,1e-05,4.0
16423.0,-4e-05,-9e-05,-0.00017,-0.00053,-0.00086,5e-05,5e-05,1e-05,4.0
16424.0,-4e-05,-9e-05,-0.00017,-0.00053,-0.00086,5e-05,5e-05,1e-05,4.0
16425.0,-4e-05,-9e-05,-0.00017,-0.00053,-0.00086,5e-05,5e-05,1e-05,4.0
16426.0,-3e-05,-4e-05,-2e-05,-0.0001,-0.00042,-0.00018,-5e-05,0.0,4.0
16427.0,-2e-05,-7e-05,-0.00011,0.00024,0.00055,-3e-05,0.0,0.0,4.0
16428.0,-2e-05,-7e-05,-0.00011,0.00024,0.00055,-3e-05,0.0,0.0,4.0
16429.0,-2e-05,-7e-05,-0.00011,0.00024,0.00055,-3e-05,0.0,0.0,4.0
16430.0,-2e-05,-7e-05,-0.00011,0.00024,0.00055,-3e-05,0.0,0.0,4.0
16431.0,-2e-05,-7e-05,-0.00011,0.00024,0.00055,-3e-05,0.0,0.0,4.0
16432.0,-2e-05,-7e-05,-0.00011,0.00024,0.00055,-3e-05,0.0,0.0,4.0
16433.0,-2e-05,-7e-05,-0.00011,0.00024,0.00055,-3e-05,0.0,0.0,4.0
16434.0,-2e-05,-7e-05,-0.00011,0.00024,0.00055,-3e-05,0.0,0.0,4.0
16435.0,-2e-05,-7e-05,-0.00011,0.00024,0.00055,-3e-05,0.0,0.0,4.0
16437.0,-2e-05,-7e-05,-0.00011,0.00024,0.00055,-3e-05,0.0,0.0,4.0
16439.0,-2e-05,-7e-05,-0.00011,0.00024,0.00055,-3e-05,0.0,0.0,4.0
16440.0,-2e-05,-7e-05,-0.00011,0.00024,0.00055,-3e-05,0.0,0.0,4.0
16441.0,-2e-05,-7e-05,-0.00011,0.00024,0.00055,-3e-05,0.0,0.0,4.0
16442.0,-2e-05,-7e-05,-0.00011,0.00024,0.00055,-3e-05,0.0,0.0,4.0
16443.0,-2e-05,-7e-05,-0.00011,0.00024,0.00055,-3e-05,0.0,0.0,4.0
16444.0,-2e-05,-7e-05,-0.00011,0.00024,0.00055,-3e-05,0.0,0.0,4.0
16445.0,-2e-05,-7e-05,-0.00011,0.00024,0.00055,-3e-05,0.0,0.0,4.0
16446.0,-2e-05,-7e-05,-0.00011,0.00024,0.00055,-3e-05,0.0,0.0,4.0
16447.0,-2e-05,-7e-05,-0.00011,0.00024,0.00055,-3e-05,0.0,0.0,4.0
16448.0,-2e-05,-7e-05,-0.00011,0.00024,0.00055,-3e-05,0.0,0.0,4.0
16449.0,4e-05,0.0001,0.00022,0.0005,0.00057,2e-05,-9e-05,-7e-05,4.0
16450.0,3e-05,7e-05,0.0001,-2e-05,-0.00018,5e-05,5e-05,1e-05,4.0
16451.0,3e-05,7e-05,0.0001,-2e-05,-0.00018,5e-05,5e-05,1e-05,4.0
16452.0,3e-05,7e-05,0.0001,-2e-05,-0.00018,5e-05,5e-05,1e-05,4.0
16453.0,3e-05,7e-05,0.0001,-2e-05,-0.00018,5e-05,5e-05,1e-05,4.0
16454.0,3e-05,7e-05,0.0001,-2e-05,-0.00018,5e-05,5e-05,1e-05,4.0
16455.0,3e-05,7e-05,0.0001,-2e-05,-0.00018,5e-05,5e-05,1e-05,4.0
16456.0,3e-05,7e-05,0.0001,-2e-05,-0.00018,5e-05,5e-05,1e-05,4.0
16457.0,3e-05,7e-05,0.0001,-2e-05,-0.00018,5e-05,5e-05,1e-05,4.0
16458.0,3e-05,7e-05,0.0001,-2e-05,-0.00018,5e-05,5e-05,1e-05,4.0
16459.0,3e-05,7e-05,0.0001,-2e-05,-0.00018,5e-05,5e-05,1e-05,4.0
16460.0,3e-05,7e-05,0.0001,-2e-05,-0.00018,5e-05,5e-05,1e-05,4.0
16461.0,3e-05,7e-05,0.0001,-2e-05,-0.00018,5e-05,5e-05,1e-05,4.0
16462.0,3e-05,7e-05,0.0001,-2e-05,-0.00018,5e-05,5e-05,1e-05,4.0
16463.0,3e-05,7e-05,0.0001,-2e-05,-0.00018,5e-05,5e-05,1e-05,4.0
16464.0,3e-05,7e-05,0.0001,-2e-05,-0.00018,5e-05,5e-05,1e-05,4.0
16465.0,3e-05,7e-05,0.0001,-2e-05,-0.00018,5e-05,5e-05,1e-05,4.0
16466.0,3e-05,7e-05,0.0001,-2e-05,-0.00018,5e-05,5e-05,1e-05,4.0
16467.0,3e-05,7e-05,0.0001,-2e-05,-0.00018,5e-05,5e-05,1e-05,4.0
16468.0,3e-05,7e-05,0.0001,-2e-05,-0.00018,5e-05,5e-05,1e-05,4.0
16469.0,3e-05,7e-05,0.0001,-2e-05,-0.00018,5e-05,5e-05,1e-05,4.0
16470.0,3e-05,7e-05,0.0001,-2e-05,-0.00018,5e-05,5e-05,1e-05,4.0
16471.0,3e-05,7e-05,0.0001,-2e-05,-0.00018,5e-05,5e-05,1e-05,4.0
16472.0,3e-05,8e-05,5e-05,0.00031,0.00058,0.00032,5e-05,1e-05,4.0
16473.0,3e-05,8e-05,5e-05,0.00031,0.00058,0.00032,5e-05,1e-05,4.0
16474.0,3e-05,8e-05,5e-05,0.00031,0.00058,0.00032,5e-05,1e-05,4.0
16475.0,3e-05,8e-05,5e-05,0.00031,0.00058,0.00032,5e-05,1e-05,4.0
16476.0,3e-05,8e-05,5e-05,0.00031,0.00058,0.00032,5e-05,1e-05,4.0
16477.0,3e-05,8e-05,5e-05,0.00031,0.00058,0.00032,5e-05,1e-05,4.0
16478.0,3e-05,8e-05,5e-05,0.00031,0.00058,0.00032,5e-05,1e-05,4.0
16479.0,3e-05,8e-05,5e-05,0.00031,0.00058,0.00032,5e-05,1e-05,4.0
16480.0,3e-05,8e-05,5e-05,0.00031,0.00058,0.00032,5e-05,1e-05,4.0
16481.0,3e-05,8e-05,5e-05,0.00031,0.00058,0.00032,5e-05,1e-05,4.0
16482.0,3e-05,8e-05,5e-05,0.00031,0.00058,0.00032,5e-05,1e-05,4.0
16483.0,3e-05,8e-05,5e-05,0.00031,0.00058,0.00032,5e-05,1e-05,4.0
16484.0,3e-05,8e-05,5e-05,0.00031,0.00058,0.00032,5e-05,1e-05,4.0
16485.0,-4e-05,-2e-05,4e-05,6e-05,0.0001,-0.00013,-2e-05,6e-05,4.0
16487.0,-9e-05,-0.00016,-0.00015,-0.00019,-8e-05,8e-05,-6e-05,-4e-05,4.0
16489.0,-9e-05,-0.00016,-0.00015,-0.00019,-8e-05,8e-05,-6e-05,-4e-05,4.0
16490.0,-9e-05,-0.00016,-0.00015,-0.00019,-8e-05,8e-05,-6e-05,-4e-05,4.0
16491.0,-9e-05,-0.00016,-0.00015,-0.00019,-8e-05,8e-05,-6e-05,-4e-05,4.0
16492.0,-9e-05,-0.00016,-0.00015,-0.00019,-8e-05,8e-05,-6e-05,-4e-05,4.0
16493.0,-9e-05,-0.00016,-0.00015,-0.00019,-8e-05,8e-05,-6e-05,-4e-05,4.0
16494.0,-9e-05,-0.00016,-0.00015,-0.00019,-8e-05,8e-05,-6e-05,-4e-05,4.0
16495.0,-9e-05,-0.00016,-0.00015,-0.00019,-8e-05,8e-05,-6e-05,-4e-05,4.0
16496.0,-9e-05,-0.00016,-0.00015,-0.00019,-8e-05,8e-05,-6e-05,-4e-05,4.0
16497.0,-9e-05,-0.00016,-0.00015,-0.00019,-8e-05,8e-05,-6e-05,-4e-05,4.0
16498.0,-9e-05,-0.00016,-0.00015,-0.00019,-8e-05,8e-05,-6e-05,-4e-05,4.0
16499.0,-9e-05,-0.00016,-0.00015,-0.00019,-8e-05,8e-05,-6e-05,-4e-05,4.0
16500.0,-9e-05,-0.00016,-0.00015,-0.00019,-8e-05,8e-05,-6e-05,-4e-05,4.0
16501.0,-9e-05,-0.00016,-0.00015,-0.00019,-8e-05,8e-05,-6e-05,-4e-05,4.0
16502.0,-9e-05,-0.00016,-0.00015,-0.00019,-8e-05,8e-05,-6e-05,-4e-05,4.0
16503.0,-9e-05,-0.00016,-0.00015,-0.00019,-8e-05,8e-05,-6e-05,-4e-05,4.0
16504.0,-9e-05,-0.00016,-0.00015,-0.00019,-8e-05,8e-05,-6e-05,-4e-05,4.0
16505.0,-9e-05,-0.00016,-0.00015,-0.00019,-8e-05,8e-05,-6e-05,-4e-05,4.0
16506.0,-9e-05,-0.00016,-0.00015,-0.00019,-8e-05,8e-05,-6e-05,-4e-05,4.0
16507.0,-9e-05,-0.00016,-0.00015,-0.00019,-8e-05,8e-05,-6e-05,-4e-05,4.0
16508.0,-9e-05,-0.00016,-0.00015,-0.00019,-8e-05,8e-05,-6e-05,-4e-05,4.0
16509.0,-9e-05,-0.00016,-0.00015,-0.00019,-8e-05,8e-05,-6e-05,-4e-05,4.0
16510.0,-9e-05,-0.00016,-0.00015,-0.00019,-8e-05,8e-05,-6e-05,-4e-05,4.0
16511.0,-9e-05,-0.00016,-0.00015,-0.00019,-8e-05,8e-05,-6e-05,-4e-05,4.0
16512.0,-9e-05,-0.00016,-0.00015,-0.00019,-8e-05,8e-05,-6e-05,-4e-05,4.0
16513.0,-9e-05,-0.00016,-0.00015,-0.00019,-8e-05,8e-05,-6e-05,-4e-05,4.0
16514.0,-9e-05,-0.00016,-0.00015,-0.00019,-8e-05,8e-05,-6e-05,-4e-05,4.0
16515.0,-9e-05,-0.00016,-0.00015,-0.00019,-8e-05,8e-05,-6e-05,-4e-05,4.0
16516.0,0.0,-8e-05,-2e-05,7e-05,0.00044,0.00048,0.00018,9e-05,4.0
16517.0,-3e-05,-2e-05,-6e-05,2e-05,-6e-05,-0.00042,-0.00016,-7e-05,4.0
16518.0,-3e-05,-2e-05,-6e-05,2e-05,-6e-05,-0.00042,-0.00016,-7e-05,4.0
16519.0,-3e-05,-2e-05,-6e-05,2e-05,-6e-05,-0.00042,-0.00016,-7e-05,4.0
16520.0,-3e-05,-2e-05,-6e-05,2e-05,-6e-05,-0.00042,-0.00016,-7e-05,4.0
16521.0,-3e-05,-2e-05,-6e-05,2e-05,-6e-05,-0.00042,-0.00016,-7e-05,4.0
16522.0,-3e-05,-2e-05,-6e-05,2e-05,-6e-05,-0.00042,-0.00016,-7e-05,4.0
16523.0,-3e-05,-2e-05,-6e-05,2e-05,-6e-05,-0.00042,-0.00016,-7e-05,4.0
16524.0,-3e-05,-2e-05,-6e-05,2e-05,-6e-05,-0.00042,-0.00016,-7e-05,4.0
16525.0,-3e-05,-2e-05,-6e-05,2e-05,-6e-05,-0.00042,-0.00016,-7e-05,4.0
16526.0,-3e-05,-2e-05,-6e-05,2e-05,-6e-05,-0.00042,-0.00016,-7e-05,4.0
16527.0,-3e-05,-2e-05,-6e-05,2e-05,-6e-05,-0.00042,-0.00016,-7e-05,4.0
16528.0,-3e-05,-2e-05,-6e-05,2e-05,-6e-05,-0.00042,-0.00016,-7e-05,4.0
16529.0,-3e-05,-2e-05,-6e-05,2e-05,-6e-05,-0.00042,-0.00016,-7e-05,4.0
16530.0,-3e-05,-2e-05,-6e-05,2e-05,-6e-05,-0.00042,-0.00016,-7e-05,4.0
16531.0,-3e-05,-2e-05,-6e-05,2e-05,-6e-05,-0.00042,-0.00016,-7e-05,4.0
16532.0,-3e-05,-2e-05,-6e-05,2e-05,-6e-05,-0.00042,-0.00016,-7e-05,4.0
16533.0,-3e-05,-2e-05,-6e-05,2e-05,-6e-05,-0.00042,-0.00016,-7e-05,4.0
16534.0,-3e-05,-2e-05,-6e-05,2e-05,-6e-05,-0.00042,-0.00016,-7e-05,4.0
16535.0,-3e-05,-2e-05,-6e-05,2e-05,-6e-05,-0.00042,-0.00016,-7e-05,4.0
16536.0,-3e-05,-2e-05,-6e-05,2e-05,-6e-05,-0.00042,-0.00016,-7e-05,4.0
16540.0,1e-05,2e-05,0.00011,0.00026,0.00023,0.00011,0.00012,9e-05,4.0
16541.0,1e-05,2e-05,0.00011,0.00026,0.00023,0.00011,0.00012,9e-05,4.0
16542.0,1e-05,2e-05,0.00011,0.00026,0.00023,0.00011,0.00012,9e-05,4.0
16543.0,1e-05,2e-05,0.00011,0.00026,0.00023,0.00011,0.00012,9e-05,4.0
16544.0,1e-05,2e-05,0.00011,0.00026,0.00023,0.00011,0.00012,9e-05,4.0
16545.0,4e-05,8e-05,0.0,8e-05,0.00049,0.00033,7e-05,2e-05,4.0
16546.0,7e-05,0.00012,3e-05,0.00025,-7e-05,6e-05,5e-05,7e-05,4.0
16547.0,7e-05,0.00012,3e-05,0.00025,-7e-05,6e-05,5e-05,7e-05,4.0
16548.0,7e-05,0.00012,3e-05,0.00025,-7e-05,6e-05,5e-05,7e-05,4.0
16549.0,7e-05,0.00012,3e-05,0.00025,-7e-05,6e-05,5e-05,7e-05,4.0
16550.0,7e-05,0.00012,3e-05,0.00025,-7e-05,6e-05,5e-05,7e-05,4.0
16551.0,7e-05,0.00012,3e-05,0.00025,-7e-05,6e-05,5e-05,7e-05,4.0
16552.0,7e-05,0.00012,3e-05,0.00025,-7e-05,6e-05,5e-05,7e-05,4.0
16553.0,7e-05,0.00012,3e-05,0.00025,-7e-05,6e-05,5e-05,7e-05,4.0
16554.0,7e-05,0.00012,3e-05,0.00025,-7e-05,6e-05,5e-05,7e-05,4.0
16555.0,7e-05,0.00012,3e-05,0.00025,-7e-05,6e-05,5e-05,7e-05,4.0
16556.0,7e-05,0.00012,3e-05,0.00025,-7e-05,6e-05,5e-05,7e-05,4.0
16557.0,7e-05,0.00012,3e-05,0.00025,-7e-05,6e-05,5e-05,7e-05,4.0
16558.0,7e-05,0.00012,3e-05,0.00025,-7e-05,6e-05,5e-05,7e-05,4.0
16559.0,7e-05,0.00012,3e-05,0.00025,-7e-05,6e-05,5e-05,7e-05,4.0
16560.0,7e-05,0.00012,3e-05,0.00025,-7e-05,6e-05,5e-05,7e-05,4.0
16561.0,7e-05,0.00012,3e-05,0.00025,-7e-05,6e-05,5e-05,7e-05,4.0
16562.0,7e-05,0.00012,3e-05,0.00025,-7e-05,6e-05,5e-05,7e-05,4.0
16563.0,7e-05,0.00012,3e-05,0.00025,-7e-05,6e-05,5e-05,7e-05,4.0
16564.0,7e-05,0.00012,3e-05,0.00025,-7e-05,6e-05,5e-05,7e-05,4.0
16565.0,7e-05,0.00012,3e-05,0.00025,-7e-05,6e-05,5e-05,7e-05,4.0
16566.0,7e-05,0.00012,3e-05,0.00025,-7e-05,6e-05,5e-05,7e-05,4.0
16567.0,7e-05,0.00012,3e-05,0.00025,-7e-05,6e-05,5e-05,7e-05,4.0
16568.0,7e-05,0.00012,3e-05,0.00025,-7e-05,6e-05,5e-05,7e-05,4.0
16569.0,7e-05,0.00012,3e-05,0.00025,-7e-05,6e-05,5e-05,7e-05,4.0
16570.0,5e-05,0.00013,0.00017,0.0007,0.00101,0.00064,0.00022,9e-05,4.0
16571.0,5e-05,0.00013,0.00017,0.0007,0.00101,0.00064,0.00022,9e-05,4.0
16572.0,5e-05,0.00013,0.00017,0.0007,0.00101,0.00064,0.00022,9e-05,4.0
16573.0,5e-05,0.00013,0.00017,0.0007,0.00101,0.00064,0.00022,9e-05,4.0
16574.0,5e-05,0.00013,0.00017,0.0007,0.00101,0.00064,0.00022,9e-05,4.0
16575.0,0.0,4e-05,0.0001,0.00015,0.00024,8e-05,0.0,3e-05,4.0
16576.0,-8e-05,-0.00013,-0.00019,-1e-05,-0.00011,3e-05,-0.00011,-0.0001,4.0
16577.0,-8e-05,-0.00013,-0.00019,-1e-05,-0.00011,3e-05,-0.00011,-0.0001,4.0
16578.0,-8e-05,-0.00013,-0.00019,-1e-05,-0.00011,3e-05,-0.00011,-0.0001,4.0
16579.0,-8e-05,-0.00013,-0.00019,-1e-05,-0.00011,3e-05,-0.00011,-0.0001,4.0
16580.0,-8e-05,-0.00013,-0.00019,-1e-05,-0.00011,3e-05,-0.00011,-0.0001,4.0
16581.0,-8e-05,-0.00013,-0.00019,-1e-05,-0.00011,3e-05,-0.00011,-0.0001,4.0
16582.0,-8e-05,-0.00013,-0.00019,-1e-05,-0.00011,3e-05,-0.00011,-0.0001,4.0
16583.0,-8e-05,-0.00013,-0.00019,-1e-05,-0.00011,3e-05,-0.00011,-0.0001,4.0
16584.0,-8e-05,-0.00013,-0.00019,-1e-05,-0.00011,3e-05,-0.00011,-0.0001,4.0
16585.0,-8e-05,-0.00013,-0.00019,-1e-05,-0.00011,3e-05,-0.00011,-0.0001,4.0
16586.0,-8e-05,-0.00013,-0.00019,-1e-05,-0.00011,3e-05,-0.00011,-0.0001,4.0
16589.0,-8e-05,-0.00013,-0.00019,-1e-05,-0.00011,3e-05,-0.00011,-0.0001,4.0
16590.0,-8e-05,-0.00013,-0.00019,-1e-05,-0.00011,3e-05,-0.00011,-0.0001,4.0
16591.0,-2e-05,-1e-05,-4e-05,-0.00023,-0.00025,8e-05,-5e-05,-4e-05,4.0
16592.0,0.0,3e-05,0.00014,-8e-05,0.0,-1e-05,3e-05,0.0,4.0
16593.0,0.0,3e-05,0.00014,-8e-05,0.0,-1e-05,3e-05,0.0,4.0
16594.0,0.0,3e-05,0.00014,-8e-05,0.0,-1e-05,3e-05,0.0,4.0
16595.0,0.0,3e-05,0.00014,-8e-05,0.0,-1e-05,3e-05,0.0,4.0
16596.0,0.0,3e-05,0.00014,-8e-05,0.0,-1e-05,3e-05,0.0,4.0
16597.0,0.0,3e-05,0.00014,-8e-05,0.0,-1e-05,3e-05,0.0,4.0
16598.0,0.0,3e-05,0.00014,-8e-05,0.0,-1e-05,3e-05,0.0,4.0
16599.0,0.0,3e-05,0.00014,-8e-05,0.0,-1e-05,3e-05,0.0,4.0
16600.0,0.0,3e-05,0.00014,-8e-05,0.0,-1e-05,3e-05,0.0,4.0
16601.0,0.0,3e-05,0.00014,-8e-05,0.0,-1e-05,3e-05,0.0,4.0
16602.0,0.0,3e-05,0.00014,-8e-05,0.0,-1e-05,3e-05,0.0,4.0
16603.0,0.0,3e-05,0.00014,-8e-05,0.0,-1e-05,3e-05,0.0,4.0
16604.0,0.0,3e-05,0.00014,-8e-05,0.0,-1e-05,3e-05,0.0,4.0
16605.0,0.0,-2e-05,-0.00016,-0.00032,-0.00068,-0.00038,-0.00011,-6e-05,4.0
16606.0,0.0,-2e-05,-0.00016,-0.00032,-0.00068,-0.00038,-0.00011,-6e-05,4.0
16607.0,0.0,-2e-05,-0.00016,-0.00032,-0.00068,-0.00038,-0.00011,-6e-05,4.0
16608.0,0.0,-2e-05,-0.00016,-0.00032,-0.00068,-0.00038,-0.00011,-6e-05,4.0
16609.0,0.0,-2e-05,-0.00016,-0.00032,-0.00068,-0.00038,-0.00011,-6e-05,4.0
16610.0,0.0,-2e-05,-0.00016,-0.00032,-0.00068,-0.00038,-0.00011,-6e-05,4.0
16611.0,0.0,-2e-05,-0.00016,-0.00032,-0.00068,-0.00038,-0.00011,-6e-05,4.0
16612.0,0.0,-2e-05,-0.00016,-0.00032,-0.00068,-0.00038,-0.00011,-6e-05,4.0
16613.0,3e-05,-2e-05,-7e-05,-0.0001,-1e-05,-0.00018,-5e-05,-1e-05,4.0
16614.0,3e-05,-2e-05,-7e-05,-0.0001,-1e-05,-0.00018,-5e-05,-1e-05,4.0
16615.0,3e-05,-2e-05,-7e-05,-0.0001,-1e-05,-0.00018,-5e-05,-1e-05,4.0
16616.0,3e-05,-2e-05,-7e-05,-0.0001,-1e-05,-0.00018,-5e-05,-1e-05,4.0
16617.0,3e-05,-2e-05,-7e-05,-0.0001,-1e-05,-0.00018,-5e-05,-1e-05,4.0
16618.0,3e-05,-2e-05,-7e-05,-0.0001,-1e-05,-0.00018,-5e-05,-1e-05,4.0
16619.0,3e-05,-2e-05,-7e-05,-0.0001,-1e-05,-0.00018,-5e-05,-1e-05,4.0
16620.0,3e-05,-2e-05,-7e-05,-0.0001,-1e-05,-0.00018,-5e-05,-1e-05,4.0
16621.0,3e-05,-2e-05,-7e-05,-0.0001,-1e-05,-0.00018,-5e-05,-1e-05,4.0
16622.0,3e-05,-2e-05,-7e-05,-0.0001,-1e-05,-0.00018,-5e-05,-1e-05,4.0
16624.0,3e-05,-2e-05,-7e-05,-0.0001,-1e-05,-0.00018,-5e-05,-1e-05,4.0
16625.0,3e-05,-2e-05,-7e-05,-0.0001,-1e-05,-0.00018,-5e-05,-1e-05,4.0
16626.0,3e-05,-2e-05,-7e-05,-0.0001,-1e-05,-0.00018,-5e-05,-1e-05,4.0
16627.0,3e-05,-2e-05,-7e-05,-0.0001,-1e-05,-0.00018,-5e-05,-1e-05,4.0
16628.0,-2e-05,-5e-05,-0.0001,0.0,-0.00017,-0.00021,-5e-05,-3e-05,4.0
16629.0,6e-05,7e-05,6e-05,0.00025,0.00023,9e-05,7e-05,8e-05,4.0
16630.0,6e-05,7e-05,6e-05,0.00025,0.00023,9e-05,7e-05,8e-05,4.0
16631.0,6e-05,7e-05,6e-05,0.00025,0.00023,9e-05,7e-05,8e-05,4.0
16632.0,6e-05,7e-05,6e-05,0.00025,0.00023,9e-05,7e-05,8e-05,4.0
16633.0,6e-05,7e-05,6e-05,0.00025,0.00023,9e-05,7e-05,8e-05,4.0
16634.0,6e-05,7e-05,6e-05,0.00025,0.00023,9e-05,7e-05,8e-05,4.0
16635.0,6e-05,7e-05,6e-05,0.00025,0.00023,9e-05,7e-05,8e-05,4.0
16636.0,6e-05,7e-05,6e-05,0.00025,0.00023,9e-05,7e-05,8e-05,4.0
16639.0,6e-05,7e-05,6e-05,0.00025,0.00023,9e-05,7e-05,8e-05,4.0
16640.0,6e-05,7e-05,6e-05,0.00025,0.00023,9e-05,7e-05,8e-05,4.0
16641.0,6e-05,7e-05,6e-05,0.00025,0.00023,9e-05,7e-05,8e-05,4.0
16642.0,6e-05,7e-05,6e-05,0.00025,0.00023,9e-05,7e-05,8e-05,4.0
16643.0,6e-05,7e-05,6e-05,0.00025,0.00023,9e-05,7e-05,8e-05,4.0
16644.0,6e-05,7e-05,6e-05,0.00025,0.00023,9e-05,7e-05,8e-05,4.0
16645.0,6e-05,7e-05,6e-05,0.00025,0.00023,9e-05,7e-05,8e-05,4.0
16646.0,6e-05,7e-05,6e-05,0.00025,0.00023,9e-05,7e-05,8e-05,4.0
16647.0,6e-05,7e-05,6e-05,0.00025,0.00023,9e-05,7e-05,8e-05,4.0
16648.0,6e-05,7e-05,6e-05,0.00025,0.00023,9e-05,7e-05,8e-05,4.0
16649.0,6e-05,7e-05,6e-05,0.00025,0.00023,9e-05,7e-05,8e-05,4.0
16650.0,6e-05,7e-05,6e-05,0.00025,0.00023,9e-05,7e-05,8e-05,4.0
16651.0,6e-05,7e-05,6e-05,0.00025,0.00023,9e-05,7e-05,8e-05,4.0
16652.0,-0.00011,-9e-05,0.0,-0.00013,0.0,-2e-05,-6e-05,-0.00017,4.0
16653.0,-7e-05,-9e-05,-0.0001,-0.0003,-0.00048,-0.0005,-0.00028,-0.00012,4.0
16654.0,-7e-05,-9e-05,-0.0001,-0.0003,-0.00048,-0.0005,-0.00028,-0.00012,4.0
16656.0,-7e-05,-9e-05,-0.0001,-0.0003,-0.00048,-0.0005,-0.00028,-0.00012,4.0
16657.0,-7e-05,-9e-05,-0.0001,-0.0003,-0.00048,-0.0005,-0.00028,-0.00012,4.0
16658.0,-7e-05,-9e-05,-0.0001,-0.0003,-0.00048,-0.0005,-0.00028,-0.00012,4.0
16659.0,-7e-05,-9e-05,-0.0001,-0.0003,-0.00048,-0.0005,-0.00028,-0.00012,4.0
16660.0,-7e-05,-9e-05,-0.0001,-0.0003,-0.00048,-0.0005,-0.00028,-0.00012,4.0
16661.0,-7e-05,-9e-05,-0.0001,-0.0003,-0.00048,-0.0005,-0.00028,-0.00012,4.0
16662.0,-7e-05,-9e-05,-0.0001,-0.0003,-0.00048,-0.0005,-0.00028,-0.00012,4.0
16663.0,-7e-05,-9e-05,-0.0001,-0.0003,-0.00048,-0.0005,-0.00028,-0.00012,4.0
16664.0,-7e-05,-9e-05,-0.0001,-0.0003,-0.00048,-0.0005,-0.00028,-0.00012,4.0
16665.0,-1e-05,4e-05,5e-05,-0.0002,-9e-05,-1e-05,-5e-05,-3e-05,4.0
16666.0,-1e-05,4e-05,5e-05,-0.0002,-9e-05,-1e-05,-5e-05,-3e-05,4.0
16667.0,-1e-05,4e-05,5e-05,-0.0002,-9e-05,-1e-05,-5e-05,-3e-05,4.0
16668.0,-1e-05,4e-05,5e-05,-0.0002,-9e-05,-1e-05,-5e-05,-3e-05,4.0
16669.0,-1e-05,4e-05,5e-05,-0.0002,-9e-05,-1e-05,-5e-05,-3e-05,4.0
16670.0,-1e-05,4e-05,5e-05,-0.0002,-9e-05,-1e-05,-5e-05,-3e-05,4.0
16671.0,-1e-05,4e-05,5e-05,-0.0002,-9e-05,-1e-05,-5e-05,-3e-05,4.0
16672.0,-1e-05,4e-05,5e-05,-0.0002,-9e-05,-1e-05,-5e-05,-3e-05,4.0
16673.0,-1e-05,4e-05,5e-05,-0.0002,-9e-05,-1e-05,-5e-05,-3e-05,4.0
16674.0,-1e-05,4e-05,5e-05,-0.0002,-9e-05,-1e-05,-5e-05,-3e-05,4.0
16675.0,-1e-05,4e-05,5e-05,-0.0002,-9e-05,-1e-05,-5e-05,-3e-05,4.0
16676.0,-1e-05,4e-05,5e-05,-0.0002,-9e-05,-1e-05,-5e-05,-3e-05,4.0
16677.0,-1e-05,4e-05,5e-05,-0.0002,-9e-05,-1e-05,-5e-05,-3e-05,4.0
16678.0,-1e-05,4e-05,5e-05,-0.0002,-9e-05,-1e-05,-5e-05,-3e-05,4.0
16679.0,-1e-05,4e-05,5e-05,-0.0002,-9e-05,-1e-05,-5e-05,-3e-05,4.0
16680.0,-1e-05,4e-05,5e-05,-0.0002,-9e-05,-1e-05,-5e-05,-3e-05,4.0
16681.0,-1e-05,4e-05,5e-05,-0.0002,-9e-05,-1e-05,-5e-05,-3e-05,4.0
16682.0,-1e-05,4e-05,5e-05,-0.0002,-9e-05,-1e-05,-5e-05,-3e-05,4.0
16683.0,-1e-05,4e-05,5e-05,-0.0002,-9e-05,-1e-05,-5e-05,-3e-05,4.0
16684.0,-1e-05,4e-05,5e-05,-0.0002,-9e-05,-1e-05,-5e-05,-3e-05,4.0
16685.0,-1e-05,4e-05,5e-05,-0.0002,-9e-05,-1e-05,-5e-05,-3e-05,4.0
16686.0,-1e-05,4e-05,5e-05,-0.0002,-9e-05,-1e-05,-5e-05,-3e-05,4.0
16689.0,-1e-05,4e-05,5e-05,-0.0002,-9e-05,-1e-05,-5e-05,-3e-05,4.0
16690.0,-1e-05,4e-05,5e-05,-0.0002,-9e-05,-1e-05,-5e-05,-3e-05,4.0
16691.0,-1e-05,4e-05,5e-05,-0.0002,-9e-05,-1e-05,-5e-05,-3e-05,4.0
16692.0,-1e-05,4e-05,5e-05,-0.0002,-9e-05,-1e-05,-5e-05,-3e-05,4.0
16693.0,-1e-05,4e-05,5e-05,-0.0002,-9e-05,-1e-05,-5e-05,-3e-05,4.0
16694.0,-1e-05,4e-05,5e-05,-0.0002,-9e-05,-1e-05,-5e-05,-3e-05,4.0
16695.0,-1e-05,4e-05,5e-05,-0.0002,-9e-05,-1e-05,-5e-05,-3e-05,4.0
16696.0,-1e-05,4e-05,5e-05,-0.0002,-9e-05,-1e-05,-5e-05,-3e-05,4.0
16697.0,-1e-05,4e-05,5e-05,-0.0002,-9e-05,-1e-05,-5e-05,-3e-05,4.0
16698.0,-4e-05,-7e-05,-0.00015,-0.00013,0.00032,-6e-05,3e-05,-3e-05,4.0
16699.0,5e-05,9e-05,4e-05,-6e-05,0.00016,0.00034,0.00016,5e-05,4.0
16700.0,5e-05,9e-05,4e-05,-6e-05,0.00016,0.00034,0.00016,5e-05,4.0
16701.0,5e-05,9e-05,4e-05,-6e-05,0.00016,0.00034,0.00016,5e-05,4.0
16702.0,5e-05,9e-05,4e-05,-6e-05,0.00016,0.00034,0.00016,5e-05,4.0
16703.0,5e-05,9e-05,4e-05,-6e-05,0.00016,0.00034,0.00016,5e-05,4.0
16704.0,5e-05,9e-05,4e-05,-6e-05,0.00016,0.00034,0.00016,5e-05,4.0
16705.0,5e-05,9e-05,4e-05,-6e-05,0.00016,0.00034,0.00016,5e-05,4.0
16706.0,5e-05,9e-05,4e-05,-6e-05,0.00016,0.00034,0.00016,5e-05,4.0
16707.0,5e-05,9e-05,4e-05,-6e-05,0.00016,0.00034,0.00016,5e-05,4.0
16708.0,5e-05,9e-05,4e-05,-6e-05,0.00016,0.00034,0.00016,5e-05,4.0
16709.0,5e-05,9e-05,4e-05,-6e-05,0.00016,0.00034,0.00016,5e-05,4.0
16710.0,5e-05,9e-05,4e-05,-6e-05,0.00016,0.00034,0.00016,5e-05,4.0
16711.0,5e-05,9e-05,4e-05,-6e-05,0.00016,0.00034,0.00016,5e-05,4.0
16712.0,5e-05,9e-05,4e-05,-6e-05,0.00016,0.00034,0.00016,5e-05,4.0
16713.0,5e-05,9e-05,4e-05,-6e-05,0.00016,0.00034,0.00016,5e-05,4.0
16714.0,5e-05,9e-05,4e-05,-6e-05,0.00016,0.00034,0.00016,5e-05,4.0
16715.0,5e-05,9e-05,4e-05,-6e-05,0.00016,0.00034,0.00016,5e-05,4.0
16716.0,5e-05,9e-05,4e-05,-6e-05,0.00016,0.00034,0.00016,5e-05,4.0
16717.0,5e-05,9e-05,4e-05,-6e-05,0.00016,0.00034,0.00016,5e-05,4.0
16718.0,5e-05,9e-05,4e-05,-6e-05,0.00016,0.00034,0.00016,5e-05,4.0
16719.0,5e-05,9e-05,4e-05,-6e-05,0.00016,0.00034,0.00016,5e-05,4.0
16720.0,5e-05,9e-05,4e-05,-6e-05,0.00016,0.00034,0.00016,5e-05,4.0
16721.0,5e-05,9e-05,4e-05,-6e-05,0.00016,0.00034,0.00016,5e-05,4.0
16722.0,5e-05,9e-05,4e-05,-6e-05,0.00016,0.00034,0.00016,5e-05,4.0
16723.0,5e-05,9e-05,4e-05,-6e-05,0.00016,0.00034,0.00016,5e-05,4.0
16724.0,5e-05,9e-05,4e-05,-6e-05,0.00016,0.00034,0.00016,5e-05,4.0
16725.0,5e-05,9e-05,4e-05,-6e-05,0.00016,0.00034,0.00016,5e-05,4.0
16726.0,5e-05,9e-05,4e-05,-6e-05,0.00016,0.00034,0.00016,5e-05,4.0
16727.0,5e-05,9e-05,4e-05,-6e-05,0.00016,0.00034,0.00016,5e-05,4.0
16728.0,5e-05,9e-05,4e-05,-6e-05,0.00016,0.00034,0.00016,5e-05,4.0
16729.0,5e-05,9e-05,4e-05,-6e-05,0.00016,0.00034,0.00016,5e-05,4.0
16730.0,5e-05,9e-05,4e-05,-6e-05,0.00016,0.00034,0.00016,5e-05,4.0
16731.0,5e-05,9e-05,4e-05,-6e-05,0.00016,0.00034,0.00016,5e-05,4.0
16732.0,5e-05,9e-05,4e-05,-6e-05,0.00016,0.00034,0.00016,5e-05,4.0
16733.0,5e-05,9e-05,4e-05,-6e-05,0.00016,0.00034,0.00016,5e-05,4.0
16734.0,5e-05,9e-05,4e-05,-6e-05,0.00016,0.00034,0.00016,5e-05,4.0
16735.0,5e-05,9e-05,4e-05,-6e-05,0.00016,0.00034,0.00016,5e-05,4.0
16736.0,5e-05,9e-05,4e-05,-6e-05,0.00016,0.00034,0.00016,5e-05,4.0
16740.0,5e-05,9e-05,4e-05,-6e-05,0.00016,0.00034,0.00016,5e-05,4.0
16741.0,1e-05,3e-05,8e-05,7e-05,0.00022,0.00026,6e-05,0.0,4.0
16742.0,1e-05,3e-05,8e-05,7e-05,0.00022,0.00026,6e-05,0.0,4.0
16743.0,1e-05,3e-05,8e-05,7e-05,0.00022,0.00026,6e-05,0.0,4.0
16744.0,1e-05,3e-05,8e-05,7e-05,0.00022,0.00026,6e-05,0.0,4.0
16745.0,1e-05,3e-05,8e-05,7e-05,0.00022,0.00026,6e-05,0.0,4.0
16746.0,1e-05,3e-05,8e-05,7e-05,0.00022,0.00026,6e-05,0.0,4.0
16747.0,1e-05,3e-05,8e-05,7e-05,0.00022,0.00026,6e-05,0.0,4.0
16748.0,1e-05,3e-05,8e-05,7e-05,0.00022,0.00026,6e-05,0.0,4.0
16749.0,1e-05,3e-05,8e-05,7e-05,0.00022,0.00026,6e-05,0.0,4.0
16750.0,1e-05,3e-05,8e-05,7e-05,0.00022,0.00026,6e-05,0.0,4.0
16751.0,1e-05,3e-05,8e-05,7e-05,0.00022,0.00026,6e-05,0.0,4.0
16752.0,1e-05,3e-05,8e-05,7e-05,0.00022,0.00026,6e-05,0.0,4.0
16753.0,1e-05,3e-05,8e-05,7e-05,0.00022,0.00026,6e-05,0.0,4.0
16754.0,1e-05,3e-05,8e-05,7e-05,0.00022,0.00026,6e-05,0.0,4.0
16755.0,1e-05,3e-05,8e-05,7e-05,0.00022,0.00026,6e-05,0.0,4.0
16756.0,1e-05,3e-05,8e-05,7e-05,0.00022,0.00026,6e-05,0.0,4.0
16757.0,1e-05,3e-05,8e-05,7e-05,0.00022,0.00026,6e-05,0.0,4.0
16758.0,1e-05,3e-05,8e-05,7e-05,0.00022,0.00026,6e-05,0.0,4.0
16759.0,1e-05,3e-05,8e-05,7e-05,0.00022,0.00026,6e-05,0.0,4.0
16760.0,1e-05,3e-05,8e-05,7e-05,0.00022,0.00026,6e-05,0.0,4.0
16761.0,1e-05,3e-05,8e-05,7e-05,0.00022,0.00026,6e-05,0.0,4.0
16762.0,1e-05,3e-05,8e-05,7e-05,0.00022,0.00026,6e-05,0.0,4.0
16763.0,1e-05,3e-05,8e-05,7e-05,0.00022,0.00026,6e-05,0.0,4.0
16764.0,1e-05,3e-05,8e-05,7e-05,0.00022,0.00026,6e-05,0.0,4.0
16765.0,1e-05,3e-05,8e-05,7e-05,0.00022,0.00026,6e-05,0.0,4.0
16766.0,1e-05,3e-05,8e-05,7e-05,0.00022,0.00026,6e-05,0.0,4.0
16767.0,1e-05,3e-05,8e-05,7e-05,0.00022,0.00026,6e-05,0.0,4.0
16768.0,1e-05,3e-05,8e-05,7e-05,0.00022,0.00026,6e-05,0.0,4.0
16769.0,1e-05,3e-05,8e-05,7e-05,0.00022,0.00026,6e-05,0.0,4.0
16770.0,1e-05,3e-05,8e-05,7e-05,0.00022,0.00026,6e-05,0.0,4.0
16771.0,1e-05,3e-05,8e-05,7e-05,0.00022,0.00026,6e-05,0.0,4.0
16772.0,1e-05,3e-05,8e-05,7e-05,0.00022,0.00026,6e-05,0.0,4.0
16773.0,1e-05,3e-05,8e-05,7e-05,0.00022,0.00026,6e-05,0.0,4.0
16774.0,1e-05,3e-05,8e-05,7e-05,0.00022,0.00026,6e-05,0.0,4.0
16775.0,1e-05,3e-05,8e-05,7e-05,0.00022,0.00026,6e-05,0.0,4.0
16776.0,1e-05,3e-05,8e-05,7e-05,0.00022,0.00026,6e-05,0.0,4.0
16777.0,1e-05,3e-05,8e-05,7e-05,0.00022,0.00026,6e-05,0.0,4.0
16778.0,1e-05,3e-05,8e-05,7e-05,0.00022,0.00026,6e-05,0.0,4.0
16779.0,1e-05,3e-05,8e-05,7e-05,0.00022,0.00026,6e-05,0.0,4.0
16780.0,1e-05,3e-05,8e-05,7e-05,0.00022,0.00026,6e-05,0.0,4.0
16781.0,1e-05,3e-05,8e-05,7e-05,0.00022,0.00026,6e-05,0.0,4.0
16782.0,1e-05,3e-05,8e-05,7e-05,0.00022,0.00026,6e-05,0.0,4.0
16783.0,1e-05,3e-05,8e-05,7e-05,0.00022,0.00026,6e-05,0.0,4.0
16784.0,1e-05,3e-05,8e-05,7e-05,0.00022,0.00026,6e-05,0.0,4.0
16785.0,1e-05,3e-05,8e-05,7e-05,0.00022,0.00026,6e-05,0.0,4.0
16786.0,1e-05,3e-05,8e-05,7e-05,0.00022,0.00026,6e-05,0.0,4.0
16789.0,1e-05,3e-05,8e-05,7e-05,0.00022,0.00026,6e-05,0.0,4.0
16790.0,1e-05,3e-05,8e-05,7e-05,0.00022,0.00026,6e-05,0.0,4.0
16791.0,1e-05,3e-05,8e-05,7e-05,0.00022,0.00026,6e-05,0.0,4.0
16792.0,1e-05,3e-05,8e-05,7e-05,0.00022,0.00026,6e-05,0.0,4.0
16793.0,1e-05,3e-05,8e-05,7e-05,0.00022,0.00026,6e-05,0.0,4.0
16794.0,1e-05,3e-05,8e-05,7e-05,0.00022,0.00026,6e-05,0.0,4.0
16795.0,1e-05,3e-05,8e-05,7e-05,0.00022,0.00026,6e-05,0.0,4.0
16796.0,1e-05,2e-05,-1e-05,0.0,0.0001,0.00023,9e-05,2e-05,4.0
16797.0,1e-05,2e-05,-1e-05,0.0,0.0001,0.00023,9e-05,2e-05,4.0
16799.0,1e-05,2e-05,-1e-05,0.0,0.0001,0.00023,9e-05,2e-05,4.0
16800.0,1e-05,2e-05,-1e-05,0.0,0.0001,0.00023,9e-05,2e-05,4.0
16801.0,1e-05,2e-05,-1e-05,0.0,0.0001,0.00023,9e-05,2e-05,4.0
16802.0,1e-05,2e-05,-1e-05,0.0,0.0001,0.00023,9e-05,2e-05,4.0
16803.0,1e-05,2e-05,-1e-05,0.0,0.0001,0.00023,9e-05,2e-05,4.0
16804.0,1e-05,2e-05,-1e-05,0.0,0.0001,0.00023,9e-05,2e-05,4.0
16805.0,1e-05,2e-05,-1e-05,0.0,0.0001,0.00023,9e-05,2e-05,4.0
16806.0,1e-05,2e-05,-1e-05,0.0,0.0001,0.00023,9e-05,2e-05,4.0
16807.0,1e-05,2e-05,-1e-05,0.0,0.0001,0.00023,9e-05,2e-05,4.0
16808.0,1e-05,2e-05,-1e-05,0.0,0.0001,0.00023,9e-05,2e-05,4.0
16809.0,1e-05,2e-05,-1e-05,0.0,0.0001,0.00023,9e-05,2e-05,4.0
16810.0,1e-05,2e-05,-1e-05,0.0,0.0001,0.00023,9e-05,2e-05,4.0
16811.0,1e-05,2e-05,-1e-05,0.0,0.0001,0.00023,9e-05,2e-05,4.0
16812.0,1e-05,2e-05,-1e-05,0.0,0.0001,0.00023,9e-05,2e-05,4.0
16813.0,1e-05,2e-05,-1e-05,0.0,0.0001,0.00023,9e-05,2e-05,4.0
16814.0,1e-05,2e-05,-1e-05,0.0,0.0001,0.00023,9e-05,2e-05,4.0
16815.0,1e-05,2e-05,-1e-05,0.0,0.0001,0.00023,9e-05,2e-05,4.0
16816.0,1e-05,2e-05,-1e-05,0.0,0.0001,0.00023,9e-05,2e-05,4.0
16817.0,1e-05,2e-05,-1e-05,0.0,0.0001,0.00023,9e-05,2e-05,4.0
16818.0,-5e-05,-9e-05,-8e-05,-0.00016,-0.00048,-0.00016,-0.0001,-6e-05,4.0
16819.0,-2e-05,-4e-05,-3e-05,6e-05,2e-05,5e-05,2e-05,-1e-05,4.0
16820.0,-8e-05,-7e-05,-9e-05,2e-05,-0.00015,-0.00021,-0.00016,-9e-05,4.0
16821.0,-8e-05,-7e-05,-9e-05,2e-05,-0.00015,-0.00021,-0.00016,-9e-05,4.0
16822.0,-8e-05,-7e-05,-9e-05,2e-05,-0.00015,-0.00021,-0.00016,-9e-05,4.0
16823.0,-8e-05,-7e-05,-9e-05,2e-05,-0.00015,-0.00021,-0.00016,-9e-05,4.0
16824.0,-8e-05,-7e-05,-9e-05,2e-05,-0.00015,-0.00021,-0.00016,-9e-05,4.0
16825.0,-8e-05,-7e-05,-9e-05,2e-05,-0.00015,-0.00021,-0.00016,-9e-05,4.0
16826.0,-8e-05,-7e-05,-9e-05,2e-05,-0.00015,-0.00021,-0.00016,-9e-05,4.0
16827.0,-8e-05,-7e-05,-9e-05,2e-05,-0.00015,-0.00021,-0.00016,-9e-05,4.0
16828.0,-8e-05,-7e-05,-9e-05,2e-05,-0.00015,-0.00021,-0.00016,-9e-05,4.0
16829.0,-8e-05,-7e-05,-9e-05,2e-05,-0.00015,-0.00021,-0.00016,-9e-05,4.0
16830.0,-8e-05,-7e-05,-9e-05,2e-05,-0.00015,-0.00021,-0.00016,-9e-05,4.0
16831.0,-8e-05,-7e-05,-9e-05,2e-05,-0.00015,-0.00021,-0.00016,-9e-05,4.0
16832.0,-8e-05,-7e-05,-9e-05,2e-05,-0.00015,-0.00021,-0.00016,-9e-05,4.0
16833.0,-8e-05,-7e-05,-9e-05,2e-05,-0.00015,-0.00021,-0.00016,-9e-05,4.0
16834.0,-8e-05,-7e-05,-9e-05,2e-05,-0.00015,-0.00021,-0.00016,-9e-05,4.0
16835.0,-8e-05,-7e-05,-9e-05,2e-05,-0.00015,-0.00021,-0.00016,-9e-05,4.0
16836.0,-8e-05,-7e-05,-9e-05,2e-05,-0.00015,-0.00021,-0.00016,-9e-05,4.0
16839.0,-8e-05,-7e-05,-9e-05,2e-05,-0.00015,-0.00021,-0.00016,-9e-05,4.0
16840.0,-8e-05,-7e-05,-9e-05,2e-05,-0.00015,-0.00021,-0.00016,-9e-05,4.0
16841.0,-8e-05,-7e-05,-9e-05,2e-05,-0.00015,-0.00021,-0.00016,-9e-05,4.0
16842.0,-8e-05,-7e-05,-9e-05,2e-05,-0.00015,-0.00021,-0.00016,-9e-05,4.0
16843.0,-8e-05,-7e-05,-9e-05,2e-05,-0.00015,-0.00021,-0.00016,-9e-05,4.0
16844.0,-8e-05,-7e-05,-9e-05,2e-05,-0.00015,-0.00021,-0.00016,-9e-05,4.0
16845.0,-8e-05,-7e-05,-9e-05,2e-05,-0.00015,-0.00021,-0.00016,-9e-05,4.0
16846.0,-8e-05,-7e-05,-9e-05,2e-05,-0.00015,-0.00021,-0.00016,-9e-05,4.0
16847.0,-8e-05,-7e-05,-9e-05,2e-05,-0.00015,-0.00021,-0.00016,-9e-05,4.0
16848.0,-8e-05,-7e-05,-9e-05,2e-05,-0.00015,-0.00021,-0.00016,-9e-05,4.0
16849.0,-8e-05,-7e-05,-9e-05,2e-05,-0.00015,-0.00021,-0.00016,-9e-05,4.0
16850.0,-8e-05,-7e-05,-9e-05,2e-05,-0.00015,-0.00021,-0.00016,-9e-05,4.0
16851.0,-8e-05,-7e-05,-9e-05,2e-05,-0.00015,-0.00021,-0.00016,-9e-05,4.0
16852.0,-8e-05,-7e-05,-9e-05,2e-05,-0.00015,-0.00021,-0.00016,-9e-05,4.0
16853.0,-8e-05,-7e-05,-9e-05,2e-05,-0.00015,-0.00021,-0.00016,-9e-05,4.0
16854.0,-8e-05,-7e-05,-9e-05,2e-05,-0.00015,-0.00021,-0.00016,-9e-05,4.0
16855.0,-8e-05,-7e-05,-9e-05,2e-05,-0.00015,-0.00021,-0.00016,-9e-05,4.0
16856.0,-8e-05,-7e-05,-9e-05,2e-05,-0.00015,-0.00021,-0.00016,-9e-05,4.0
16857.0,-8e-05,-7e-05,-9e-05,2e-05,-0.00015,-0.00021,-0.00016,-9e-05,4.0
16858.0,-8e-05,-7e-05,-9e-05,2e-05,-0.00015,-0.00021,-0.00016,-9e-05,4.0
16859.0,-8e-05,-7e-05,-9e-05,2e-05,-0.00015,-0.00021,-0.00016,-9e-05,4.0
16860.0,-8e-05,-7e-05,-9e-05,2e-05,-0.00015,-0.00021,-0.00016,-9e-05,4.0
16861.0,-8e-05,-7e-05,-9e-05,2e-05,-0.00015,-0.00021,-0.00016,-9e-05,4.0
16862.0,-8e-05,-7e-05,-9e-05,2e-05,-0.00015,-0.00021,-0.00016,-9e-05,4.0
16863.0,-8e-05,-7e-05,-9e-05,2e-05,-0.00015,-0.00021,-0.00016,-9e-05,4.0
16864.0,-8e-05,-7e-05,-9e-05,2e-05,-0.00015,-0.00021,-0.00016,-9e-05,4.0
16865.0,-8e-05,-7e-05,-9e-05,2e-05,-0.00015,-0.00021,-0.00016,-9e-05,4.0
16866.0,-8e-05,-7e-05,-9e-05,2e-05,-0.00015,-0.00021,-0.00016,-9e-05,4.0
16867.0,-8e-05,-7e-05,-9e-05,2e-05,-0.00015,-0.00021,-0.00016,-9e-05,4.0
16868.0,-8e-05,-7e-05,-9e-05,2e-05,-0.00015,-0.00021,-0.00016,-9e-05,4.0
16869.0,-8e-05,-7e-05,-9e-05,2e-05,-0.00015,-0.00021,-0.00016,-9e-05,4.0
16870.0,7e-05,9e-05,0.00014,0.00037,0.00036,0.00012,8e-05,7e-05,4.0
16871.0,2e-05,9e-05,8e-05,-3e-05,3e-05,-1e-05,-2e-05,0.0,4.0
16872.0,2e-05,9e-05,8e-05,-3e-05,3e-05,-1e-05,-2e-05,0.0,4.0
16873.0,-4e-05,-4e-05,-3e-05,-0.00015,-0.00017,-0.00014,-9e-05,-6e-05,4.0
16874.0,-4e-05,-4e-05,-3e-05,-0.00015,-0.00017,-0.00014,-9e-05,-6e-05,4.0
16875.0,-4e-05,-4e-05,-3e-05,-0.00015,-0.00017,-0.00014,-9e-05,-6e-05,4.0
16876.0,-4e-05,-4e-05,-3e-05,-0.00015,-0.00017,-0.00014,-9e-05,-6e-05,4.0
16877.0,-4e-05,-4e-05,-3e-05,-0.00015,-0.00017,-0.00014,-9e-05,-6e-05,4.0
16878.0,-4e-05,-4e-05,-3e-05,-0.00015,-0.00017,-0.00014,-9e-05,-6e-05,4.0
16879.0,-4e-05,-4e-05,-3e-05,-0.00015,-0.00017,-0.00014,-9e-05,-6e-05,4.0
16880.0,-4e-05,-4e-05,-3e-05,-0.00015,-0.00017,-0.00014,-9e-05,-6e-05,4.0
16881.0,-4e-05,-4e-05,-3e-05,-0.00015,-0.00017,-0.00014,-9e-05,-6e-05,4.0
16882.0,-4e-05,-4e-05,-3e-05,-0.00015,-0.00017,-0.00014,-9e-05,-6e-05,4.0
16883.0,-4e-05,-4e-05,-3e-05,-0.00015,-0.00017,-0.00014,-9e-05,-6e-05,4.0
16884.0,-4e-05,-4e-05,-3e-05,-0.00015,-0.00017,-0.00014,-9e-05,-6e-05,4.0
16885.0,-4e-05,-4e-05,-3e-05,-0.00015,-0.00017,-0.00014,-9e-05,-6e-05,4.0
16886.0,-4e-05,-4e-05,-3e-05,-0.00015,-0.00017,-0.00014,-9e-05,-6e-05,4.0
16889.0,-4e-05,-4e-05,-3e-05,-0.00015,-0.00017,-0.00014,-9e-05,-6e-05,4.0
16890.0,-4e-05,-4e-05,-3e-05,-0.00015,-0.00017,-0.00014,-9e-05,-6e-05,4.0
16891.0,-4e-05,-4e-05,-3e-05,-0.00015,-0.00017,-0.00014,-9e-05,-6e-05,4.0
16892.0,-1e-05,1e-05,3e-05,-6e-05,-0.00023,-8e-05,-0.0001,-5e-05,4.0
16893.0,-1e-05,1e-05,3e-05,-6e-05,-0.00023,-8e-05,-0.0001,-5e-05,4.0
16894.0,-1e-05,1e-05,3e-05,-6e-05,-0.00023,-8e-05,-0.0001,-5e-05,4.0
16895.0,-1e-05,1e-05,3e-05,-6e-05,-0.00023,-8e-05,-0.0001,-5e-05,4.0
16896.0,-1e-05,1e-05,3e-05,-6e-05,-0.00023,-8e-05,-0.0001,-5e-05,4.0
16897.0,-1e-05,1e-05,3e-05,-6e-05,-0.00023,-8e-05,-0.0001,-5e-05,4.0
16898.0,-1e-05,1e-05,3e-05,-6e-05,-0.00023,-8e-05,-0.0001,-5e-05,4.0
16899.0,-1e-05,1e-05,3e-05,-6e-05,-0.00023,-8e-05,-0.0001,-5e-05,4.0
16900.0,-1e-05,1e-05,3e-05,-6e-05,-0.00023,-8e-05,-0.0001,-5e-05,4.0
16901.0,-1e-05,1e-05,3e-05,-6e-05,-0.00023,-8e-05,-0.0001,-5e-05,4.0
16902.0,-1e-05,1e-05,3e-05,-6e-05,-0.00023,-8e-05,-0.0001,-5e-05,4.0
16903.0,-1e-05,1e-05,3e-05,-6e-05,-0.00023,-8e-05,-0.0001,-5e-05,4.0
16904.0,-1e-05,1e-05,3e-05,-6e-05,-0.00023,-8e-05,-0.0001,-5e-05,4.0
16905.0,-1e-05,1e-05,3e-05,-6e-05,-0.00023,-8e-05,-0.0001,-5e-05,4.0
16906.0,-1e-05,1e-05,3e-05,-6e-05,-0.00023,-8e-05,-0.0001,-5e-05,4.0
16907.0,-1e-05,1e-05,3e-05,-6e-05,-0.00023,-8e-05,-0.0001,-5e-05,4.0
16908.0,-1e-05,1e-05,3e-05,-6e-05,-0.00023,-8e-05,-0.0001,-5e-05,4.0
16909.0,-1e-05,1e-05,3e-05,-6e-05,-0.00023,-8e-05,-0.0001,-5e-05,4.0
16910.0,-1e-05,1e-05,3e-05,-6e-05,-0.00023,-8e-05,-0.0001,-5e-05,4.0
16911.0,-1e-05,1e-05,3e-05,-6e-05,-0.00023,-8e-05,-0.0001,-5e-05,4.0
16912.0,-1e-05,1e-05,3e-05,-6e-05,-0.00023,-8e-05,-0.0001,-5e-05,4.0
16913.0,-1e-05,1e-05,3e-05,-6e-05,-0.00023,-8e-05,-0.0001,-5e-05,4.0
16914.0,-1e-05,1e-05,3e-05,-6e-05,-0.00023,-8e-05,-0.0001,-5e-05,4.0
16915.0,-1e-05,1e-05,3e-05,-6e-05,-0.00023,-8e-05,-0.0001,-5e-05,4.0
16916.0,-1e-05,1e-05,3e-05,-6e-05,-0.00023,-8e-05,-0.0001,-5e-05,4.0
16917.0,-1e-05,1e-05,3e-05,-6e-05,-0.00023,-8e-05,-0.0001,-5e-05,4.0
16918.0,-1e-05,1e-05,3e-05,-6e-05,-0.00023,-8e-05,-0.0001,-5e-05,4.0
16919.0,-1e-05,1e-05,3e-05,-6e-05,-0.00023,-8e-05,-0.0001,-5e-05,4.0
16920.0,-1e-05,1e-05,3e-05,-6e-05,-0.00023,-8e-05,-0.0001,-5e-05,4.0
16921.0,-1e-05,1e-05,3e-05,-6e-05,-0.00023,-8e-05,-0.0001,-5e-05,4.0
16922.0,-1e-05,1e-05,3e-05,-6e-05,-0.00023,-8e-05,-0.0001,-5e-05,4.0
16923.0,-1e-05,1e-05,3e-05,-6e-05,-0.00023,-8e-05,-0.0001,-5e-05,4.0
16924.0,-1e-05,1e-05,3e-05,-6e-05,-0.00023,-8e-05,-0.0001,-5e-05,4.0
16925.0,-1e-05,1e-05,3e-05,-6e-05,-0.00023,-8e-05,-0.0001,-5e-05,4.0
16926.0,-1e-05,1e-05,3e-05,-6e-05,-0.00023,-8e-05,-0.0001,-5e-05,4.0
16927.0,-1e-05,1e-05,3e-05,-6e-05,-0.00023,-8e-05,-0.0001,-5e-05,4.0
16928.0,-1e-05,1e-05,3e-05,-6e-05,-0.00023,-8e-05,-0.0001,-5e-05,4.0
16929.0,-1e-05,1e-05,3e-05,-6e-05,-0.00023,-8e-05,-0.0001,-5e-05,4.0
16930.0,-1e-05,1e-05,3e-05,-6e-05,-0.00023,-8e-05,-0.0001,-5e-05,4.0
16931.0,-1e-05,1e-05,3e-05,-6e-05,-0.00023,-8e-05,-0.0001,-5e-05,4.0
16932.0,-1e-05,1e-05,3e-05,-6e-05,-0.00023,-8e-05,-0.0001,-5e-05,4.0
16933.0,-1e-05,1e-05,3e-05,-6e-05,-0.00023,-8e-05,-0.0001,-5e-05,4.0
16934.0,-1e-05,1e-05,3e-05,-6e-05,-0.00023,-8e-05,-0.0001,-5e-05,4.0
16935.0,-1e-05,1e-05,3e-05,-6e-05,-0.00023,-8e-05,-0.0001,-5e-05,4.0
16936.0,-1e-05,1e-05,3e-05,-6e-05,-0.00023,-8e-05,-0.0001,-5e-05,4.0
16939.0,-1e-05,1e-05,3e-05,-6e-05,-0.00023,-8e-05,-0.0001,-5e-05,4.0
16940.0,-1e-05,1e-05,3e-05,-6e-05,-0.00023,-8e-05,-0.0001,-5e-05,4.0
16941.0,-1e-05,1e-05,3e-05,-6e-05,-0.00023,-8e-05,-0.0001,-5e-05,4.0
16942.0,-1e-05,1e-05,3e-05,-6e-05,-0.00023,-8e-05,-0.0001,-5e-05,4.0
16943.0,-1e-05,1e-05,3e-05,-6e-05,-0.00023,-8e-05,-0.0001,-5e-05,4.0
16944.0,-1e-05,1e-05,3e-05,-6e-05,-0.00023,-8e-05,-0.0001,-5e-05,4.0
16945.0,-1e-05,1e-05,3e-05,-6e-05,-0.00023,-8e-05,-0.0001,-5e-05,4.0
16946.0,-1e-05,1e-05,3e-05,-6e-05,-0.00023,-8e-05,-0.0001,-5e-05,4.0
16947.0,-1e-05,1e-05,3e-05,-6e-05,-0.00023,-8e-05,-0.0001,-5e-05,4.0
16948.0,-1e-05,1e-05,3e-05,-6e-05,-0.00023,-8e-05,-0.0001,-5e-05,4.0
16949.0,-1e-05,1e-05,3e-05,-6e-05,-0.00023,-8e-05,-0.0001,-5e-05,4.0
16950.0,-1e-05,1e-05,3e-05,-6e-05,-0.00023,-8e-05,-0.0001,-5e-05,4.0
16951.0,-2e-05,-7e-05,-9e-05,-0.00013,-0.00016,9e-05,7e-05,1e-05,4.0
16952.0,-2e-05,-7e-05,-9e-05,-0.00013,-0.00016,9e-05,7e-05,1e-05,4.0
16953.0,-2e-05,-7e-05,-9e-05,-0.00013,-0.00016,9e-05,7e-05,1e-05,4.0
16954.0,-2e-05,-7e-05,-9e-05,-0.00013,-0.00016,9e-05,7e-05,1e-05,4.0
16955.0,-2e-05,-7e-05,-9e-05,-0.00013,-0.00016,9e-05,7e-05,1e-05,4.0
16956.0,-2e-05,-7e-05,-9e-05,-0.00013,-0.00016,9e-05,7e-05,1e-05,4.0
16957.0,-2e-05,-7e-05,-9e-05,-0.00013,-0.00016,9e-05,7e-05,1e-05,4.0
16958.0,-2e-05,-7e-05,-9e-05,-0.00013,-0.00016,9e-05,7e-05,1e-05,4.0
16959.0,-2e-05,-7e-05,-9e-05,-0.00013,-0.00016,9e-05,7e-05,1e-05,4.0
16960.0,-2e-05,-7e-05,-9e-05,-0.00013,-0.00016,9e-05,7e-05,1e-05,4.0
16961.0,-2e-05,-7e-05,-9e-05,-0.00013,-0.00016,9e-05,7e-05,1e-05,4.0
16962.0,-2e-05,-7e-05,-9e-05,-0.00013,-0.00016,9e-05,7e-05,1e-05,4.0
16963.0,-2e-05,-7e-05,-9e-05,-0.00013,-0.00016,9e-05,7e-05,1e-05,4.0
16964.0,-2e-05,-7e-05,-9e-05,-0.00013,-0.00016,9e-05,7e-05,1e-05,4.0
16965.0,-2e-05,-7e-05,-9e-05,-0.00013,-0.00016,9e-05,7e-05,1e-05,4.0
16966.0,-2e-05,-7e-05,-9e-05,-0.00013,-0.00016,9e-05,7e-05,1e-05,4.0
16967.0,0.0,9e-05,0.00013,0.00012,-2e-05,1e-05,-0.0001,-0.00011,4.0
16968.0,1e-05,-3e-05,-1e-05,-7e-05,-0.00022,0.0001,-1e-05,3e-05,4.0
16969.0,1e-05,-3e-05,-1e-05,-7e-05,-0.00022,0.0001,-1e-05,3e-05,4.0
16970.0,1e-05,-3e-05,-1e-05,-7e-05,-0.00022,0.0001,-1e-05,3e-05,4.0
16971.0,1e-05,-3e-05,-1e-05,-7e-05,-0.00022,0.0001,-1e-05,3e-05,4.0
16972.0,1e-05,-3e-05,-1e-05,-7e-05,-0.00022,0.0001,-1e-05,3e-05,4.0
16973.0,1e-05,-3e-05,-1e-05,-7e-05,-0.00022,0.0001,-1e-05,3e-05,4.0
16974.0,1e-05,-3e-05,-1e-05,-7e-05,-0.00022,0.0001,-1e-05,3e-05,4.0
16975.0,1e-05,-3e-05,-1e-05,-7e-05,-0.00022,0.0001,-1e-05,3e-05,4.0
16976.0,1e-05,-3e-05,-1e-05,-7e-05,-0.00022,0.0001,-1e-05,3e-05,4.0
16977.0,1e-05,-3e-05,-1e-05,-7e-05,-0.00022,0.0001,-1e-05,3e-05,4.0
16978.0,1e-05,-3e-05,-1e-05,-7e-05,-0.00022,0.0001,-1e-05,3e-05,4.0
16979.0,1e-05,-3e-05,-1e-05,-7e-05,-0.00022,0.0001,-1e-05,3e-05,4.0
16980.0,1e-05,-3e-05,-1e-05,-7e-05,-0.00022,0.0001,-1e-05,3e-05,4.0
16981.0,1e-05,-3e-05,-1e-05,-7e-05,-0.00022,0.0001,-1e-05,3e-05,4.0
16982.0,1e-05,-3e-05,-1e-05,-7e-05,-0.00022,0.0001,-1e-05,3e-05,4.0
16983.0,1e-05,-3e-05,-1e-05,-7e-05,-0.00022,0.0001,-1e-05,3e-05,4.0
16984.0,1e-05,-3e-05,-1e-05,-7e-05,-0.00022,0.0001,-1e-05,3e-05,4.0
16985.0,1e-05,-3e-05,-1e-05,-7e-05,-0.00022,0.0001,-1e-05,3e-05,4.0
16986.0,1e-05,-3e-05,-1e-05,-7e-05,-0.00022,0.0001,-1e-05,3e-05,4.0
16989.0,1e-05,-3e-05,-1e-05,-7e-05,-0.00022,0.0001,-1e-05,3e-05,4.0
16990.0,1e-05,-3e-05,-1e-05,-7e-05,-0.00022,0.0001,-1e-05,3e-05,4.0
16991.0,1e-05,-3e-05,-1e-05,-7e-05,-0.00022,0.0001,-1e-05,3e-05,4.0
16992.0,1e-05,-3e-05,-1e-05,-7e-05,-0.00022,0.0001,-1e-05,3e-05,4.0
16993.0,1e-05,-3e-05,-1e-05,-7e-05,-0.00022,0.0001,-1e-05,3e-05,4.0
16994.0,1e-05,-3e-05,-1e-05,-7e-05,-0.00022,0.0001,-1e-05,3e-05,4.0
16995.0,1e-05,-3e-05,-1e-05,-7e-05,-0.00022,0.0001,-1e-05,3e-05,4.0
16996.0,1e-05,-3e-05,-1e-05,-7e-05,-0.00022,0.0001,-1e-05,3e-05,4.0
16997.0,1e-05,-3e-05,-1e-05,-7e-05,-0.00022,0.0001,-1e-05,3e-05,4.0
16998.0,1e-05,-3e-05,-1e-05,-7e-05,-0.00022,0.0001,-1e-05,3e-05,4.0
16999.0,1e-05,-3e-05,-1e-05,-7e-05,-0.00022,0.0001,-1e-05,3e-05,4.0
17000.0,1e-05,-3e-05,-1e-05,-7e-05,-0.00022,0.0001,-1e-05,3e-05,4.0
17001.0,1e-05,-3e-05,-1e-05,-7e-05,-0.00022,0.0001,-1e-05,3e-05,4.0
17002.0,1e-05,-3e-05,-1e-05,-7e-05,-0.00022,0.0001,-1e-05,3e-05,4.0
17003.0,1e-05,-3e-05,-1e-05,-7e-05,-0.00022,0.0001,-1e-05,3e-05,4.0
17004.0,1e-05,-3e-05,-1e-05,-7e-05,-0.00022,0.0001,-1e-05,3e-05,4.0
17005.0,1e-05,-3e-05,-1e-05,-7e-05,-0.00022,0.0001,-1e-05,3e-05,4.0
17006.0,1e-05,-3e-05,-1e-05,-7e-05,-0.00022,0.0001,-1e-05,3e-05,4.0
17007.0,1e-05,-3e-05,-1e-05,-7e-05,-0.00022,0.0001,-1e-05,3e-05,4.0
17008.0,1e-05,-3e-05,-1e-05,-7e-05,-0.00022,0.0001,-1e-05,3e-05,4.0
17009.0,1e-05,-3e-05,-1e-05,-7e-05,-0.00022,0.0001,-1e-05,3e-05,4.0
17010.0,1e-05,-3e-05,-1e-05,-7e-05,-0.00022,0.0001,-1e-05,3e-05,4.0
17011.0,1e-05,-3e-05,-1e-05,-7e-05,-0.00022,0.0001,-1e-05,3e-05,4.0
17012.0,1e-05,-3e-05,-1e-05,-7e-05,-0.00022,0.0001,-1e-05,3e-05,4.0
17013.0,1e-05,-3e-05,-1e-05,-7e-05,-0.00022,0.0001,-1e-05,3e-05,4.0
17014.0,1e-05,-3e-05,-1e-05,-7e-05,-0.00022,0.0001,-1e-05,3e-05,4.0
17015.0,1e-05,-3e-05,-1e-05,-7e-05,-0.00022,0.0001,-1e-05,3e-05,4.0
17016.0,1e-05,-3e-05,-1e-05,-7e-05,-0.00022,0.0001,-1e-05,3e-05,4.0
17017.0,1e-05,-3e-05,-1e-05,-7e-05,-0.00022,0.0001,-1e-05,3e-05,4.0
17018.0,1e-05,-3e-05,-1e-05,-7e-05,-0.00022,0.0001,-1e-05,3e-05,4.0
17019.0,1e-05,-3e-05,-1e-05,-7e-05,-0.00022,0.0001,-1e-05,3e-05,4.0
17020.0,-4e-05,-2e-05,-0.0001,1e-05,-0.00013,-8e-05,-8e-05,-6e-05,4.0
17021.0,4e-05,0.00012,0.00012,-6e-05,-0.00014,7e-05,-4e-05,-1e-05,4.0
17022.0,4e-05,0.00012,0.00012,-6e-05,-0.00014,7e-05,-4e-05,-1e-05,4.0
17023.0,-7e-05,-0.00011,-0.00017,-0.00022,-0.00032,-0.00017,-0.00017,-0.00011,4.0
17024.0,-7e-05,-0.00011,-0.00017,-0.00022,-0.00032,-0.00017,-0.00017,-0.00011,4.0
17025.0,-7e-05,-0.00011,-0.00017,-0.00022,-0.00032,-0.00017,-0.00017,-0.00011,4.0
17026.0,-7e-05,-0.00011,-0.00017,-0.00022,-0.00032,-0.00017,-0.00017,-0.00011,4.0
17027.0,-7e-05,-0.00011,-0.00017,-0.00022,-0.00032,-0.00017,-0.00017,-0.00011,4.0
17028.0,-7e-05,-0.00011,-0.00017,-0.00022,-0.00032,-0.00017,-0.00017,-0.00011,4.0
17029.0,-7e-05,-0.00011,-0.00017,-0.00022,-0.00032,-0.00017,-0.00017,-0.00011,4.0
17030.0,-7e-05,-0.00011,-0.00017,-0.00022,-0.00032,-0.00017,-0.00017,-0.00011,4.0
17031.0,-7e-05,-0.00011,-0.00017,-0.00022,-0.00032,-0.00017,-0.00017,-0.00011,4.0
17033.0,-7e-05,-0.00011,-0.00017,-0.00022,-0.00032,-0.00017,-0.00017,-0.00011,4.0
17034.0,-1e-05,3e-05,-6e-05,-1e-05,2e-05,-0.00011,-7e-05,-3e-05,4.0
17035.0,-1e-05,3e-05,-6e-05,-1e-05,2e-05,-0.00011,-7e-05,-3e-05,4.0
17036.0,-1e-05,3e-05,-6e-05,-1e-05,2e-05,-0.00011,-7e-05,-3e-05,4.0
17039.0,-1e-05,3e-05,-6e-05,-1e-05,2e-05,-0.00011,-7e-05,-3e-05,4.0
17040.0,-1e-05,3e-05,-6e-05,-1e-05,2e-05,-0.00011,-7e-05,-3e-05,4.0
17041.0,-1e-05,3e-05,-6e-05,-1e-05,2e-05,-0.00011,-7e-05,-3e-05,4.0
17042.0,-1e-05,3e-05,-6e-05,-1e-05,2e-05,-0.00011,-7e-05,-3e-05,4.0
17043.0,-1e-05,3e-05,-6e-05,-1e-05,2e-05,-0.00011,-7e-05,-3e-05,4.0
17044.0,-1e-05,3e-05,-6e-05,-1e-05,2e-05,-0.00011,-7e-05,-3e-05,4.0
17045.0,-1e-05,3e-05,-6e-05,-1e-05,2e-05,-0.00011,-7e-05,-3e-05,4.0
17046.0,-1e-05,3e-05,-6e-05,-1e-05,2e-05,-0.00011,-7e-05,-3e-05,4.0
17047.0,-1e-05,3e-05,-6e-05,-1e-05,2e-05,-0.00011,-7e-05,-3e-05,4.0
17048.0,-1e-05,3e-05,-6e-05,-1e-05,2e-05,-0.00011,-7e-05,-3e-05,4.0
17049.0,-1e-05,3e-05,-6e-05,-1e-05,2e-05,-0.00011,-7e-05,-3e-05,4.0
17050.0,-1e-05,3e-05,-6e-05,-1e-05,2e-05,-0.00011,-7e-05,-3e-05,4.0
17051.0,-1e-05,3e-05,-6e-05,-1e-05,2e-05,-0.00011,-7e-05,-3e-05,4.0
17052.0,-1e-05,3e-05,-6e-05,-1e-05,2e-05,-0.00011,-7e-05,-3e-05,4.0
17053.0,-1e-05,3e-05,-6e-05,-1e-05,2e-05,-0.00011,-7e-05,-3e-05,4.0
17054.0,-1e-05,3e-05,-6e-05,-1e-05,2e-05,-0.00011,-7e-05,-3e-05,4.0
17055.0,-1e-05,3e-05,-6e-05,-1e-05,2e-05,-0.00011,-7e-05,-3e-05,4.0
17056.0,-1e-05,3e-05,-6e-05,-1e-05,2e-05,-0.00011,-7e-05,-3e-05,4.0
17057.0,-1e-05,3e-05,-6e-05,-1e-05,2e-05,-0.00011,-7e-05,-3e-05,4.0
17058.0,-1e-05,3e-05,-6e-05,-1e-05,2e-05,-0.00011,-7e-05,-3e-05,4.0
17059.0,-1e-05,3e-05,-6e-05,-1e-05,2e-05,-0.00011,-7e-05,-3e-05,4.0
17060.0,-1e-05,3e-05,-6e-05,-1e-05,2e-05,-0.00011,-7e-05,-3e-05,4.0
17061.0,-1e-05,3e-05,-6e-05,-1e-05,2e-05,-0.00011,-7e-05,-3e-05,4.0
17062.0,-1e-05,3e-05,-6e-05,-1e-05,2e-05,-0.00011,-7e-05,-3e-05,4.0
17063.0,-1e-05,3e-05,-6e-05,-1e-05,2e-05,-0.00011,-7e-05,-3e-05,4.0
17064.0,-1e-05,3e-05,-6e-05,-1e-05,2e-05,-0.00011,-7e-05,-3e-05,4.0
17065.0,-1e-05,3e-05,-6e-05,-1e-05,2e-05,-0.00011,-7e-05,-3e-05,4.0
17066.0,-1e-05,3e-05,-6e-05,-1e-05,2e-05,-0.00011,-7e-05,-3e-05,4.0
17067.0,-1e-05,3e-05,-6e-05,-1e-05,2e-05,-0.00011,-7e-05,-3e-05,4.0
17068.0,-1e-05,3e-05,-6e-05,-1e-05,2e-05,-0.00011,-7e-05,-3e-05,4.0
17069.0,-1e-05,3e-05,-6e-05,-1e-05,2e-05,-0.00011,-7e-05,-3e-05,4.0
17070.0,-1e-05,3e-05,-6e-05,-1e-05,2e-05,-0.00011,-7e-05,-3e-05,4.0
17071.0,-1e-05,3e-05,-6e-05,-1e-05,2e-05,-0.00011,-7e-05,-3e-05,4.0
17072.0,-1e-05,3e-05,-6e-05,-1e-05,2e-05,-0.00011,-7e-05,-3e-05,4.0
17073.0,-2e-05,-8e-05,0.00012,0.00017,0.00011,-0.00014,-2e-05,-1e-05,4.0
17074.0,6e-05,0.00011,0.00015,0.00025,0.0003,0.00032,1e-05,3e-05,4.0
17075.0,6e-05,0.00011,0.00015,0.00025,0.0003,0.00032,1e-05,3e-05,4.0
17076.0,6e-05,0.00011,0.00015,0.00025,0.0003,0.00032,1e-05,3e-05,4.0
17077.0,6e-05,0.00011,0.00015,0.00025,0.0003,0.00032,1e-05,3e-05,4.0
17078.0,6e-05,0.00011,0.00015,0.00025,0.0003,0.00032,1e-05,3e-05,4.0
17079.0,6e-05,0.00011,0.00015,0.00025,0.0003,0.00032,1e-05,3e-05,4.0
17080.0,6e-05,0.00011,0.00015,0.00025,0.0003,0.00032,1e-05,3e-05,4.0
17081.0,6e-05,0.00011,0.00015,0.00025,0.0003,0.00032,1e-05,3e-05,4.0
17082.0,6e-05,0.00011,0.00015,0.00025,0.0003,0.00032,1e-05,3e-05,4.0
17083.0,6e-05,0.00011,0.00015,0.00025,0.0003,0.00032,1e-05,3e-05,4.0
17084.0,6e-05,0.00011,0.00015,0.00025,0.0003,0.00032,1e-05,3e-05,4.0
17085.0,6e-05,0.00011,0.00015,0.00025,0.0003,0.00032,1e-05,3e-05,4.0
17086.0,6e-05,0.00011,0.00015,0.00025,0.0003,0.00032,1e-05,3e-05,4.0
17089.0,6e-05,0.00011,0.00015,0.00025,0.0003,0.00032,1e-05,3e-05,4.0
17090.0,6e-05,0.00011,0.00015,0.00025,0.0003,0.00032,1e-05,3e-05,4.0
17091.0,6e-05,0.00011,0.00015,0.00025,0.0003,0.00032,1e-05,3e-05,4.0
17092.0,6e-05,0.00011,0.00015,0.00025,0.0003,0.00032,1e-05,3e-05,4.0
17093.0,6e-05,0.00011,0.00015,0.00025,0.0003,0.00032,1e-05,3e-05,4.0
17094.0,6e-05,0.00011,0.00015,0.00025,0.0003,0.00032,1e-05,3e-05,4.0
17095.0,6e-05,0.00011,0.00015,0.00025,0.0003,0.00032,1e-05,3e-05,4.0
17096.0,1e-05,4e-05,4e-05,-5e-05,-0.00018,6e-05,4e-05,1e-05,4.0
17097.0,-6e-05,-9e-05,-2e-05,0.00013,6e-05,5e-05,0.0,-1e-05,4.0
17098.0,-6e-05,-9e-05,-2e-05,0.00013,6e-05,5e-05,0.0,-1e-05,4.0
17099.0,-6e-05,-9e-05,-2e-05,0.00013,6e-05,5e-05,0.0,-1e-05,4.0
17100.0,-6e-05,-9e-05,-2e-05,0.00013,6e-05,5e-05,0.0,-1e-05,4.0
17101.0,-6e-05,-9e-05,-2e-05,0.00013,6e-05,5e-05,0.0,-1e-05,4.0
17102.0,-6e-05,-9e-05,-2e-05,0.00013,6e-05,5e-05,0.0,-1e-05,4.0
17103.0,-6e-05,-9e-05,-2e-05,0.00013,6e-05,5e-05,0.0,-1e-05,4.0
17104.0,-6e-05,-9e-05,-2e-05,0.00013,6e-05,5e-05,0.0,-1e-05,4.0
17105.0,-6e-05,-9e-05,-2e-05,0.00013,6e-05,5e-05,0.0,-1e-05,4.0
17106.0,-6e-05,-9e-05,-2e-05,0.00013,6e-05,5e-05,0.0,-1e-05,4.0
17107.0,-6e-05,-9e-05,-2e-05,0.00013,6e-05,5e-05,0.0,-1e-05,4.0
17108.0,-6e-05,-9e-05,-2e-05,0.00013,6e-05,5e-05,0.0,-1e-05,4.0
17109.0,-6e-05,-9e-05,-2e-05,0.00013,6e-05,5e-05,0.0,-1e-05,4.0
17110.0,-6e-05,-9e-05,-2e-05,0.00013,6e-05,5e-05,0.0,-1e-05,4.0
17111.0,-6e-05,-9e-05,-2e-05,0.00013,6e-05,5e-05,0.0,-1e-05,4.0
17112.0,-6e-05,-9e-05,-2e-05,0.00013,6e-05,5e-05,0.0,-1e-05,4.0
17113.0,-6e-05,-9e-05,-2e-05,0.00013,6e-05,5e-05,0.0,-1e-05,4.0
17114.0,-6e-05,-9e-05,-2e-05,0.00013,6e-05,5e-05,0.0,-1e-05,4.0
17115.0,-6e-05,-9e-05,-2e-05,0.00013,6e-05,5e-05,0.0,-1e-05,4.0
17116.0,-6e-05,-9e-05,-2e-05,0.00013,6e-05,5e-05,0.0,-1e-05,4.0
17117.0,-6e-05,-9e-05,-2e-05,0.00013,6e-05,5e-05,0.0,-1e-05,4.0
17118.0,-6e-05,-9e-05,-2e-05,0.00013,6e-05,5e-05,0.0,-1e-05,4.0
17119.0,-6e-05,-9e-05,-2e-05,0.00013,6e-05,5e-05,0.0,-1e-05,4.0
17120.0,-6e-05,-9e-05,-2e-05,0.00013,6e-05,5e-05,0.0,-1e-05,4.0
17121.0,-6e-05,-9e-05,-2e-05,0.00013,6e-05,5e-05,0.0,-1e-05,4.0
17122.0,-6e-05,-9e-05,-2e-05,0.00013,6e-05,5e-05,0.0,-1e-05,4.0
17123.0,-6e-05,-9e-05,-2e-05,0.00013,6e-05,5e-05,0.0,-1e-05,4.0
17124.0,-6e-05,-9e-05,-2e-05,0.00013,6e-05,5e-05,0.0,-1e-05,4.0
17125.0,-6e-05,-9e-05,-2e-05,0.00013,6e-05,5e-05,0.0,-1e-05,4.0
17126.0,-6e-05,-9e-05,-2e-05,0.00013,6e-05,5e-05,0.0,-1e-05,4.0
17127.0,-6e-05,-9e-05,-2e-05,0.00013,6e-05,5e-05,0.0,-1e-05,4.0
17128.0,-6e-05,-9e-05,-2e-05,0.00013,6e-05,5e-05,0.0,-1e-05,4.0
17129.0,-6e-05,-9e-05,-2e-05,0.00013,6e-05,5e-05,0.0,-1e-05,4.0
17130.0,-6e-05,-9e-05,-2e-05,0.00013,6e-05,5e-05,0.0,-1e-05,4.0
17131.0,-6e-05,-9e-05,-2e-05,0.00013,6e-05,5e-05,0.0,-1e-05,4.0
17132.0,-6e-05,-9e-05,-2e-05,0.00013,6e-05,5e-05,0.0,-1e-05,4.0
17133.0,-6e-05,-9e-05,-2e-05,0.00013,6e-05,5e-05,0.0,-1e-05,4.0
17134.0,-6e-05,-9e-05,-2e-05,0.00013,6e-05,5e-05,0.0,-1e-05,4.0
17135.0,-6e-05,-9e-05,-2e-05,0.00013,6e-05,5e-05,0.0,-1e-05,4.0
17136.0,-6e-05,-9e-05,-2e-05,0.00013,6e-05,5e-05,0.0,-1e-05,4.0
17139.0,-6e-05,-9e-05,-2e-05,0.00013,6e-05,5e-05,0.0,-1e-05,4.0
17140.0,-6e-05,-9e-05,-2e-05,0.00013,6e-05,5e-05,0.0,-1e-05,4.0
17141.0,-6e-05,-9e-05,-2e-05,0.00013,6e-05,5e-05,0.0,-1e-05,4.0
17142.0,-6e-05,-9e-05,-2e-05,0.00013,6e-05,5e-05,0.0,-1e-05,4.0
17143.0,-6e-05,-9e-05,-2e-05,0.00013,6e-05,5e-05,0.0,-1e-05,4.0
17144.0,-6e-05,-9e-05,-2e-05,0.00013,6e-05,5e-05,0.0,-1e-05,4.0
17145.0,-6e-05,-9e-05,-2e-05,0.00013,6e-05,5e-05,0.0,-1e-05,4.0
17146.0,-6e-05,-9e-05,-2e-05,0.00013,6e-05,5e-05,0.0,-1e-05,4.0
17147.0,-6e-05,-9e-05,-2e-05,0.00013,6e-05,5e-05,0.0,-1e-05,4.0
17148.0,-6e-05,-9e-05,-2e-05,0.00013,6e-05,5e-05,0.0,-1e-05,4.0
17149.0,-6e-05,-9e-05,-2e-05,0.00013,6e-05,5e-05,0.0,-1e-05,4.0
17150.0,-6e-05,-9e-05,-2e-05,0.00013,6e-05,5e-05,0.0,-1e-05,4.0
17151.0,-6e-05,-9e-05,-2e-05,0.00013,6e-05,5e-05,0.0,-1e-05,4.0
17152.0,-6e-05,-9e-05,-2e-05,0.00013,6e-05,5e-05,0.0,-1e-05,4.0
17153.0,-6e-05,-9e-05,-2e-05,0.00013,6e-05,5e-05,0.0,-1e-05,4.0
17154.0,-6e-05,-9e-05,-2e-05,0.00013,6e-05,5e-05,0.0,-1e-05,4.0
17155.0,-6e-05,-9e-05,-2e-05,0.00013,6e-05,5e-05,0.0,-1e-05,4.0
17156.0,-6e-05,-9e-05,-2e-05,0.00013,6e-05,5e-05,0.0,-1e-05,4.0
17157.0,-6e-05,-9e-05,-2e-05,0.00013,6e-05,5e-05,0.0,-1e-05,4.0
17158.0,-6e-05,-9e-05,-2e-05,0.00013,6e-05,5e-05,0.0,-1e-05,4.0
17159.0,-6e-05,-9e-05,-2e-05,0.00013,6e-05,5e-05,0.0,-1e-05,4.0
17160.0,-6e-05,-9e-05,-2e-05,0.00013,6e-05,5e-05,0.0,-1e-05,4.0
17161.0,-6e-05,-9e-05,-2e-05,0.00013,6e-05,5e-05,0.0,-1e-05,4.0
17162.0,-6e-05,-9e-05,-2e-05,0.00013,6e-05,5e-05,0.0,-1e-05,4.0
17163.0,-6e-05,-9e-05,-2e-05,0.00013,6e-05,5e-05,0.0,-1e-05,4.0
17164.0,-6e-05,-9e-05,-2e-05,0.00013,6e-05,5e-05,0.0,-1e-05,4.0
17165.0,-6e-05,-9e-05,-2e-05,0.00013,6e-05,5e-05,0.0,-1e-05,4.0
17166.0,-6e-05,-9e-05,-2e-05,0.00013,6e-05,5e-05,0.0,-1e-05,4.0
17167.0,-6e-05,-9e-05,-2e-05,0.00013,6e-05,5e-05,0.0,-1e-05,4.0
17168.0,-6e-05,-9e-05,-2e-05,0.00013,6e-05,5e-05,0.0,-1e-05,4.0
17169.0,-6e-05,-9e-05,-2e-05,0.00013,6e-05,5e-05,0.0,-1e-05,4.0
17170.0,-1e-05,3e-05,5e-05,-0.00013,-0.00022,-0.00011,-6e-05,-2e-05,4.0
17171.0,-1e-05,3e-05,5e-05,-0.00013,-0.00022,-0.00011,-6e-05,-2e-05,4.0
17172.0,-2e-05,-8e-05,-0.00021,-0.00019,-0.00031,-0.00014,-4e-05,3e-05,4.0
17173.0,-2e-05,-8e-05,-0.00021,-0.00019,-0.00031,-0.00014,-4e-05,3e-05,4.0
17174.0,-2e-05,-8e-05,-0.00021,-0.00019,-0.00031,-0.00014,-4e-05,3e-05,4.0
17175.0,-2e-05,-8e-05,-0.00021,-0.00019,-0.00031,-0.00014,-4e-05,3e-05,4.0
17176.0,-2e-05,-8e-05,-0.00021,-0.00019,-0.00031,-0.00014,-4e-05,3e-05,4.0
17177.0,0.0,9e-05,0.00017,0.00019,0.00016,-1e-05,-3e-05,-3e-05,4.0
17178.0,-3e-05,-0.0001,-0.0002,-0.00028,-0.00051,-0.00022,-0.00013,-7e-05,4.0
17179.0,-3e-05,-0.0001,-0.0002,-0.00028,-0.00051,-0.00022,-0.00013,-7e-05,4.0
17180.0,-3e-05,-0.0001,-0.0002,-0.00028,-0.00051,-0.00022,-0.00013,-7e-05,4.0
17181.0,-3e-05,-0.0001,-0.0002,-0.00028,-0.00051,-0.00022,-0.00013,-7e-05,4.0
17182.0,-3e-05,-0.0001,-0.0002,-0.00028,-0.00051,-0.00022,-0.00013,-7e-05,4.0
17183.0,-3e-05,-0.0001,-0.0002,-0.00028,-0.00051,-0.00022,-0.00013,-7e-05,4.0
17184.0,-3e-05,-0.0001,-0.0002,-0.00028,-0.00051,-0.00022,-0.00013,-7e-05,4.0
17185.0,-3e-05,-0.0001,-0.0002,-0.00028,-0.00051,-0.00022,-0.00013,-7e-05,4.0
17186.0,-3e-05,-0.0001,-0.0002,-0.00028,-0.00051,-0.00022,-0.00013,-7e-05,4.0
17189.0,-3e-05,-0.0001,-0.0002,-0.00028,-0.00051,-0.00022,-0.00013,-7e-05,4.0
17191.0,-3e-05,-0.0001,-0.0002,-0.00028,-0.00051,-0.00022,-0.00013,-7e-05,4.0
17192.0,-3e-05,-0.0001,-0.0002,-0.00028,-0.00051,-0.00022,-0.00013,-7e-05,4.0
17193.0,-3e-05,-0.0001,-0.0002,-0.00028,-0.00051,-0.00022,-0.00013,-7e-05,4.0
17194.0,-3e-05,-0.0001,-0.0002,-0.00028,-0.00051,-0.00022,-0.00013,-7e-05,4.0
17195.0,-3e-05,-0.0001,-0.0002,-0.00028,-0.00051,-0.00022,-0.00013,-7e-05,4.0
17196.0,-3e-05,-0.0001,-0.0002,-0.00028,-0.00051,-0.00022,-0.00013,-7e-05,4.0
17197.0,-3e-05,-0.0001,-0.0002,-0.00028,-0.00051,-0.00022,-0.00013,-7e-05,4.0
17198.0,-5e-05,-0.0001,2e-05,-0.00016,-0.00011,-0.00012,-7e-05,-4e-05,4.0
17199.0,-5e-05,-0.0001,2e-05,-0.00016,-0.00011,-0.00012,-7e-05,-4e-05,4.0
17200.0,-5e-05,-0.0001,2e-05,-0.00016,-0.00011,-0.00012,-7e-05,-4e-05,4.0
17201.0,-5e-05,-0.0001,2e-05,-0.00016,-0.00011,-0.00012,-7e-05,-4e-05,4.0
17202.0,-5e-05,-0.0001,2e-05,-0.00016,-0.00011,-0.00012,-7e-05,-4e-05,4.0
17203.0,-5e-05,-0.0001,2e-05,-0.00016,-0.00011,-0.00012,-7e-05,-4e-05,4.0
17204.0,-5e-05,-0.0001,2e-05,-0.00016,-0.00011,-0.00012,-7e-05,-4e-05,4.0
17205.0,-5e-05,-0.0001,2e-05,-0.00016,-0.00011,-0.00012,-7e-05,-4e-05,4.0
17206.0,-5e-05,-0.0001,2e-05,-0.00016,-0.00011,-0.00012,-7e-05,-4e-05,4.0
17207.0,0.0,-3e-05,-0.00013,-0.00024,-0.00032,-0.00014,-8e-05,-4e-05,4.0
17208.0,0.0,-3e-05,-0.00013,-0.00024,-0.00032,-0.00014,-8e-05,-4e-05,4.0
17209.0,0.0,-3e-05,-0.00013,-0.00024,-0.00032,-0.00014,-8e-05,-4e-05,4.0
17210.0,0.0,-3e-05,-0.00013,-0.00024,-0.00032,-0.00014,-8e-05,-4e-05,4.0
17211.0,0.0,-3e-05,-0.00013,-0.00024,-0.00032,-0.00014,-8e-05,-4e-05,4.0
17212.0,0.0,-3e-05,-0.00013,-0.00024,-0.00032,-0.00014,-8e-05,-4e-05,4.0
17213.0,0.0,-3e-05,-0.00013,-0.00024,-0.00032,-0.00014,-8e-05,-4e-05,4.0
17214.0,0.0,-3e-05,-0.00013,-0.00024,-0.00032,-0.00014,-8e-05,-4e-05,4.0
17215.0,0.0,-3e-05,-0.00013,-0.00024,-0.00032,-0.00014,-8e-05,-4e-05,4.0
17216.0,0.0,-3e-05,-0.00013,-0.00024,-0.00032,-0.00014,-8e-05,-4e-05,4.0
17217.0,0.0,-3e-05,-0.00013,-0.00024,-0.00032,-0.00014,-8e-05,-4e-05,4.0
17218.0,0.0,-3e-05,-0.00013,-0.00024,-0.00032,-0.00014,-8e-05,-4e-05,4.0
17219.0,0.0,-3e-05,-0.00013,-0.00024,-0.00032,-0.00014,-8e-05,-4e-05,4.0
17220.0,0.0,-3e-05,-0.00013,-0.00024,-0.00032,-0.00014,-8e-05,-4e-05,4.0
17221.0,0.0,-3e-05,-0.00013,-0.00024,-0.00032,-0.00014,-8e-05,-4e-05,4.0
17222.0,0.0,-3e-05,-0.00013,-0.00024,-0.00032,-0.00014,-8e-05,-4e-05,4.0
17223.0,3e-05,0.00013,0.0002,0.00012,4e-05,4e-05,8e-05,5e-05,4.0
17224.0,3e-05,0.00013,0.0002,0.00012,4e-05,4e-05,8e-05,5e-05,4.0
17225.0,3e-05,0.00013,0.0002,0.00012,4e-05,4e-05,8e-05,5e-05,4.0
17226.0,3e-05,0.00013,0.0002,0.00012,4e-05,4e-05,8e-05,5e-05,4.0
17227.0,3e-05,0.00013,0.0002,0.00012,4e-05,4e-05,8e-05,5e-05,4.0
17228.0,1e-05,-6e-05,-0.00017,-9e-05,0.00026,0.00021,0.0001,4e-05,4.0
17229.0,-2e-05,-6e-05,1e-05,-0.00016,-0.00021,0.0001,8e-05,1e-05,4.0
17230.0,-2e-05,-6e-05,1e-05,-0.00016,-0.00021,0.0001,8e-05,1e-05,4.0
17231.0,-2e-05,-6e-05,1e-05,-0.00016,-0.00021,0.0001,8e-05,1e-05,4.0
17232.0,-2e-05,-6e-05,1e-05,-0.00016,-0.00021,0.0001,8e-05,1e-05,4.0
17233.0,-2e-05,-6e-05,1e-05,-0.00016,-0.00021,0.0001,8e-05,1e-05,4.0
17234.0,-2e-05,-6e-05,1e-05,-0.00016,-0.00021,0.0001,8e-05,1e-05,4.0
17235.0,-8e-05,-0.00018,-0.00014,-9e-05,9e-05,-3e-05,-3e-05,-6e-05,4.0
17236.0,-8e-05,-0.00018,-0.00014,-9e-05,9e-05,-3e-05,-3e-05,-6e-05,4.0
17238.0,-8e-05,-0.00018,-0.00014,-9e-05,9e-05,-3e-05,-3e-05,-6e-05,4.0
17239.0,-8e-05,-0.00018,-0.00014,-9e-05,9e-05,-3e-05,-3e-05,-6e-05,4.0
17240.0,-8e-05,-0.00018,-0.00014,-9e-05,9e-05,-3e-05,-3e-05,-6e-05,4.0
17241.0,-8e-05,-0.00018,-0.00014,-9e-05,9e-05,-3e-05,-3e-05,-6e-05,4.0
17242.0,-8e-05,-0.00018,-0.00014,-9e-05,9e-05,-3e-05,-3e-05,-6e-05,4.0
17243.0,-8e-05,-0.00018,-0.00014,-9e-05,9e-05,-3e-05,-3e-05,-6e-05,4.0
17244.0,-8e-05,-0.00018,-0.00014,-9e-05,9e-05,-3e-05,-3e-05,-6e-05,4.0
17245.0,-8e-05,-0.00018,-0.00014,-9e-05,9e-05,-3e-05,-3e-05,-6e-05,4.0
17246.0,-8e-05,-0.00018,-0.00014,-9e-05,9e-05,-3e-05,-3e-05,-6e-05,4.0
17247.0,-8e-05,-0.00018,-0.00014,-9e-05,9e-05,-3e-05,-3e-05,-6e-05,4.0
17248.0,-8e-05,-0.00018,-0.00014,-9e-05,9e-05,-3e-05,-3e-05,-6e-05,4.0
17249.0,-8e-05,-0.00018,-0.00014,-9e-05,9e-05,-3e-05,-3e-05,-6e-05,4.0
17250.0,-8e-05,-0.00018,-0.00014,-9e-05,9e-05,-3e-05,-3e-05,-6e-05,4.0
17251.0,0.0,5e-05,3e-05,2e-05,0.00017,-5e-05,4e-05,2e-05,4.0
17252.0,0.0,5e-05,3e-05,2e-05,0.00017,-5e-05,4e-05,2e-05,4.0
17253.0,-1e-05,1e-05,-3e-05,2e-05,6e-05,4e-05,-2e-05,-1e-05,4.0
17254.0,-1e-05,1e-05,-3e-05,2e-05,6e-05,4e-05,-2e-05,-1e-05,4.0
17255.0,-1e-05,1e-05,-3e-05,2e-05,6e-05,4e-05,-2e-05,-1e-05,4.0
17256.0,-1e-05,1e-05,-3e-05,2e-05,6e-05,4e-05,-2e-05,-1e-05,4.0
17257.0,-1e-05,1e-05,-3e-05,2e-05,6e-05,4e-05,-2e-05,-1e-05,4.0
17258.0,-1e-05,1e-05,-3e-05,2e-05,6e-05,4e-05,-2e-05,-1e-05,4.0
17259.0,-1e-05,1e-05,-3e-05,2e-05,6e-05,4e-05,-2e-05,-1e-05,4.0
17260.0,-1e-05,1e-05,-3e-05,2e-05,6e-05,4e-05,-2e-05,-1e-05,4.0
17261.0,-1e-05,1e-05,-3e-05,2e-05,6e-05,4e-05,-2e-05,-1e-05,4.0
17262.0,-1e-05,1e-05,-3e-05,2e-05,6e-05,4e-05,-2e-05,-1e-05,4.0
17263.0,-1e-05,1e-05,-3e-05,2e-05,6e-05,4e-05,-2e-05,-1e-05,4.0
17264.0,-1e-05,1e-05,-3e-05,2e-05,6e-05,4e-05,-2e-05,-1e-05,4.0
17265.0,-1e-05,1e-05,-3e-05,2e-05,6e-05,4e-05,-2e-05,-1e-05,4.0
17266.0,-1e-05,1e-05,-3e-05,2e-05,6e-05,4e-05,-2e-05,-1e-05,4.0
17267.0,-1e-05,1e-05,-3e-05,2e-05,6e-05,4e-05,-2e-05,-1e-05,4.0
17268.0,-1e-05,1e-05,-3e-05,2e-05,6e-05,4e-05,-2e-05,-1e-05,4.0
17269.0,-1e-05,1e-05,-3e-05,2e-05,6e-05,4e-05,-2e-05,-1e-05,4.0
17270.0,-1e-05,1e-05,-3e-05,2e-05,6e-05,4e-05,-2e-05,-1e-05,4.0
17271.0,-1e-05,1e-05,-3e-05,2e-05,6e-05,4e-05,-2e-05,-1e-05,4.0
17272.0,-1e-05,1e-05,-3e-05,2e-05,6e-05,4e-05,-2e-05,-1e-05,4.0
17273.0,-1e-05,1e-05,-3e-05,2e-05,6e-05,4e-05,-2e-05,-1e-05,4.0
17274.0,-1e-05,1e-05,-3e-05,2e-05,6e-05,4e-05,-2e-05,-1e-05,4.0
17275.0,-1e-05,1e-05,-3e-05,2e-05,6e-05,4e-05,-2e-05,-1e-05,4.0
17276.0,-1e-05,1e-05,-3e-05,2e-05,6e-05,4e-05,-2e-05,-1e-05,4.0
17277.0,-1e-05,1e-05,-3e-05,2e-05,6e-05,4e-05,-2e-05,-1e-05,4.0
17278.0,-1e-05,1e-05,-3e-05,2e-05,6e-05,4e-05,-2e-05,-1e-05,4.0
17279.0,-1e-05,1e-05,-3e-05,2e-05,6e-05,4e-05,-2e-05,-1e-05,4.0
17280.0,4e-05,1e-05,2e-05,-4e-05,0.0,0.00019,3e-05,1e-05,4.0
17281.0,4e-05,1e-05,2e-05,-4e-05,0.0,0.00019,3e-05,1e-05,4.0
17282.0,4e-05,1e-05,2e-05,-4e-05,0.0,0.00019,3e-05,1e-05,4.0
17283.0,4e-05,1e-05,2e-05,-4e-05,0.0,0.00019,3e-05,1e-05,4.0
17284.0,4e-05,1e-05,2e-05,-4e-05,0.0,0.00019,3e-05,1e-05,4.0
17285.0,4e-05,1e-05,2e-05,-4e-05,0.0,0.00019,3e-05,1e-05,4.0
17286.0,4e-05,1e-05,2e-05,-4e-05,0.0,0.00019,3e-05,1e-05,4.0
17289.0,4e-05,1e-05,2e-05,-4e-05,0.0,0.00019,3e-05,1e-05,4.0
17290.0,4e-05,1e-05,2e-05,-4e-05,0.0,0.00019,3e-05,1e-05,4.0
17291.0,4e-05,1e-05,2e-05,-4e-05,0.0,0.00019,3e-05,1e-05,4.0
17292.0,4e-05,1e-05,2e-05,-4e-05,0.0,0.00019,3e-05,1e-05,4.0
17293.0,4e-05,1e-05,2e-05,-4e-05,0.0,0.00019,3e-05,1e-05,4.0
17294.0,4e-05,1e-05,2e-05,-4e-05,0.0,0.00019,3e-05,1e-05,4.0
17295.0,4e-05,1e-05,2e-05,-4e-05,0.0,0.00019,3e-05,1e-05,4.0
17296.0,4e-05,1e-05,2e-05,-4e-05,0.0,0.00019,3e-05,1e-05,4.0
17297.0,-8e-05,-9e-05,0.0,-0.00012,1e-05,-0.00011,-0.0001,-0.00012,4.0
17298.0,-5e-05,0.0,-5e-05,0.00013,-0.00019,-5e-05,-9e-05,-5e-05,4.0
17299.0,-3e-05,-9e-05,-0.00022,-0.00019,1e-05,-6e-05,-6e-05,-1e-05,4.0
17300.0,-3e-05,-9e-05,-0.00022,-0.00019,1e-05,-6e-05,-6e-05,-1e-05,4.0
17301.0,-3e-05,-9e-05,-0.00022,-0.00019,1e-05,-6e-05,-6e-05,-1e-05,4.0
17302.0,-3e-05,-9e-05,-0.00022,-0.00019,1e-05,-6e-05,-6e-05,-1e-05,4.0
17303.0,-3e-05,-9e-05,-0.00022,-0.00019,1e-05,-6e-05,-6e-05,-1e-05,4.0
17304.0,-3e-05,-9e-05,-0.00022,-0.00019,1e-05,-6e-05,-6e-05,-1e-05,4.0
17305.0,-3e-05,-9e-05,-0.00022,-0.00019,1e-05,-6e-05,-6e-05,-1e-05,4.0
17306.0,-3e-05,-9e-05,-0.00022,-0.00019,1e-05,-6e-05,-6e-05,-1e-05,4.0
17307.0,-3e-05,-9e-05,-0.00022,-0.00019,1e-05,-6e-05,-6e-05,-1e-05,4.0
17308.0,-3e-05,-9e-05,-0.00022,-0.00019,1e-05,-6e-05,-6e-05,-1e-05,4.0
17309.0,-3e-05,-9e-05,-0.00022,-0.00019,1e-05,-6e-05,-6e-05,-1e-05,4.0
17310.0,-3e-05,-9e-05,-0.00022,-0.00019,1e-05,-6e-05,-6e-05,-1e-05,4.0
17311.0,4e-05,0.0001,5e-05,8e-05,7e-05,-1e-05,2e-05,1e-05,4.0
17312.0,4e-05,0.0001,5e-05,8e-05,7e-05,-1e-05,2e-05,1e-05,4.0
17313.0,1e-05,4e-05,0.00012,-4e-05,-0.00012,-7e-05,-6e-05,-5e-05,4.0
17315.0,1e-05,4e-05,0.00012,-4e-05,-0.00012,-7e-05,-6e-05,-5e-05,4.0
17316.0,1e-05,4e-05,0.00012,-4e-05,-0.00012,-7e-05,-6e-05,-5e-05,4.0
17317.0,1e-05,4e-05,0.00012,-4e-05,-0.00012,-7e-05,-6e-05,-5e-05,4.0
17318.0,1e-05,4e-05,0.00012,-4e-05,-0.00012,-7e-05,-6e-05,-5e-05,4.0
17319.0,1e-05,4e-05,0.00012,-4e-05,-0.00012,-7e-05,-6e-05,-5e-05,4.0
17320.0,1e-05,4e-05,0.00012,-4e-05,-0.00012,-7e-05,-6e-05,-5e-05,4.0
17321.0,1e-05,4e-05,0.00012,-4e-05,-0.00012,-7e-05,-6e-05,-5e-05,4.0
17322.0,1e-05,4e-05,0.00012,-4e-05,-0.00012,-7e-05,-6e-05,-5e-05,4.0
17323.0,1e-05,4e-05,0.00012,-4e-05,-0.00012,-7e-05,-6e-05,-5e-05,4.0
17324.0,1e-05,4e-05,0.00012,-4e-05,-0.00012,-7e-05,-6e-05,-5e-05,4.0
17325.0,1e-05,4e-05,0.00012,-4e-05,-0.00012,-7e-05,-6e-05,-5e-05,4.0
17326.0,1e-05,4e-05,0.00012,-4e-05,-0.00012,-7e-05,-6e-05,-5e-05,4.0
17327.0,1e-05,4e-05,0.00012,-4e-05,-0.00012,-7e-05,-6e-05,-5e-05,4.0
17328.0,1e-05,4e-05,0.00012,-4e-05,-0.00012,-7e-05,-6e-05,-5e-05,4.0
17329.0,1e-05,4e-05,0.00012,-4e-05,-0.00012,-7e-05,-6e-05,-5e-05,4.0
17330.0,1e-05,4e-05,0.00012,-4e-05,-0.00012,-7e-05,-6e-05,-5e-05,4.0
17331.0,1e-05,4e-05,0.00012,-4e-05,-0.00012,-7e-05,-6e-05,-5e-05,4.0
17332.0,1e-05,4e-05,0.00012,-4e-05,-0.00012,-7e-05,-6e-05,-5e-05,4.0
17333.0,1e-05,4e-05,0.00012,-4e-05,-0.00012,-7e-05,-6e-05,-5e-05,4.0
17334.0,3e-05,1e-05,4e-05,0.00024,0.00059,0.00023,0.00013,9e-05,4.0
17335.0,-1e-05,1e-05,4e-05,-4e-05,-0.00014,-0.0001,-6e-05,-4e-05,4.0
17336.0,-1e-05,1e-05,4e-05,-4e-05,-0.00014,-0.0001,-6e-05,-4e-05,4.0
17339.0,-1e-05,1e-05,4e-05,-4e-05,-0.00014,-0.0001,-6e-05,-4e-05,4.0
17340.0,-1e-05,1e-05,4e-05,-4e-05,-0.00014,-0.0001,-6e-05,-4e-05,4.0
17341.0,-1e-05,1e-05,4e-05,-4e-05,-0.00014,-0.0001,-6e-05,-4e-05,4.0
17342.0,-1e-05,1e-05,4e-05,-4e-05,-0.00014,-0.0001,-6e-05,-4e-05,4.0
17343.0,-1e-05,1e-05,4e-05,-4e-05,-0.00014,-0.0001,-6e-05,-4e-05,4.0
17344.0,-1e-05,1e-05,4e-05,-4e-05,-0.00014,-0.0001,-6e-05,-4e-05,4.0
17345.0,-1e-05,1e-05,4e-05,-4e-05,-0.00014,-0.0001,-6e-05,-4e-05,4.0
17346.0,-1e-05,1e-05,4e-05,-4e-05,-0.00014,-0.0001,-6e-05,-4e-05,4.0
17347.0,-1e-05,1e-05,4e-05,-4e-05,-0.00014,-0.0001,-6e-05,-4e-05,4.0
17348.0,-4e-05,0.0,-1e-05,-0.00028,-0.00031,-0.0002,-0.0001,-3e-05,4.0
17349.0,-4e-05,0.0,-1e-05,-0.00028,-0.00031,-0.0002,-0.0001,-3e-05,4.0
17350.0,-4e-05,0.0,-1e-05,-0.00028,-0.00031,-0.0002,-0.0001,-3e-05,4.0
17351.0,-4e-05,0.0,-1e-05,-0.00028,-0.00031,-0.0002,-0.0001,-3e-05,4.0
17352.0,-4e-05,0.0,-1e-05,-0.00028,-0.00031,-0.0002,-0.0001,-3e-05,4.0
17353.0,-4e-05,0.0,-1e-05,-0.00028,-0.00031,-0.0002,-0.0001,-3e-05,4.0
17354.0,-4e-05,0.0,-1e-05,-0.00028,-0.00031,-0.0002,-0.0001,-3e-05,4.0
17355.0,1e-05,7e-05,0.00027,0.00029,0.00026,0.00012,-2e-05,-1e-05,4.0
17356.0,1e-05,7e-05,0.00027,0.00029,0.00026,0.00012,-2e-05,-1e-05,4.0
17357.0,1e-05,7e-05,0.00027,0.00029,0.00026,0.00012,-2e-05,-1e-05,4.0
17358.0,1e-05,7e-05,0.00027,0.00029,0.00026,0.00012,-2e-05,-1e-05,4.0
17359.0,1e-05,7e-05,0.00027,0.00029,0.00026,0.00012,-2e-05,-1e-05,4.0
17360.0,1e-05,7e-05,0.00027,0.00029,0.00026,0.00012,-2e-05,-1e-05,4.0
17361.0,1e-05,7e-05,0.00027,0.00029,0.00026,0.00012,-2e-05,-1e-05,4.0
17362.0,1e-05,7e-05,0.00027,0.00029,0.00026,0.00012,-2e-05,-1e-05,4.0
17363.0,1e-05,7e-05,0.00027,0.00029,0.00026,0.00012,-2e-05,-1e-05,4.0
17364.0,1e-05,7e-05,0.00027,0.00029,0.00026,0.00012,-2e-05,-1e-05,4.0
17365.0,1e-05,7e-05,0.00027,0.00029,0.00026,0.00012,-2e-05,-1e-05,4.0
17366.0,1e-05,7e-05,0.00027,0.00029,0.00026,0.00012,-2e-05,-1e-05,4.0
17367.0,1e-05,7e-05,0.00027,0.00029,0.00026,0.00012,-2e-05,-1e-05,4.0
17368.0,1e-05,7e-05,0.00027,0.00029,0.00026,0.00012,-2e-05,-1e-05,4.0
17369.0,1e-05,7e-05,0.00027,0.00029,0.00026,0.00012,-2e-05,-1e-05,4.0
17370.0,1e-05,7e-05,0.00027,0.00029,0.00026,0.00012,-2e-05,-1e-05,4.0
17371.0,-2e-05,-2e-05,3e-05,0.00011,0.00018,-1e-05,-1e-05,-2e-05,4.0
17372.0,-2e-05,-2e-05,3e-05,0.00011,0.00018,-1e-05,-1e-05,-2e-05,4.0
17373.0,-4e-05,-6e-05,-0.00015,-7e-05,0.00031,-0.00013,-0.0002,-8e-05,4.0
17374.0,-4e-05,-6e-05,-0.00015,-7e-05,0.00031,-0.00013,-0.0002,-8e-05,4.0
17375.0,-4e-05,-6e-05,-0.00015,-7e-05,0.00031,-0.00013,-0.0002,-8e-05,4.0
17376.0,-4e-05,-6e-05,-0.00015,-7e-05,0.00031,-0.00013,-0.0002,-8e-05,4.0
17377.0,-4e-05,-6e-05,-0.00015,-7e-05,0.00031,-0.00013,-0.0002,-8e-05,4.0
17378.0,-4e-05,-6e-05,-0.00015,-7e-05,0.00031,-0.00013,-0.0002,-8e-05,4.0
17379.0,-4e-05,-6e-05,-0.00015,-7e-05,0.00031,-0.00013,-0.0002,-8e-05,4.0
17380.0,-4e-05,-6e-05,-0.00015,-7e-05,0.00031,-0.00013,-0.0002,-8e-05,4.0
17381.0,-4e-05,-6e-05,-0.00015,-7e-05,0.00031,-0.00013,-0.0002,-8e-05,4.0
17382.0,-4e-05,-6e-05,-0.00015,-7e-05,0.00031,-0.00013,-0.0002,-8e-05,4.0
17383.0,-4e-05,-6e-05,-0.00015,-7e-05,0.00031,-0.00013,-0.0002,-8e-05,4.0
17384.0,-4e-05,-6e-05,-0.00015,-7e-05,0.00031,-0.00013,-0.0002,-8e-05,4.0
17385.0,-4e-05,-6e-05,-0.00015,-7e-05,0.00031,-0.00013,-0.0002,-8e-05,4.0
17386.0,-4e-05,-6e-05,-0.00015,-7e-05,0.00031,-0.00013,-0.0002,-8e-05,4.0
17388.0,-4e-05,-6e-05,-0.00015,-7e-05,0.00031,-0.00013,-0.0002,-8e-05,4.0
17389.0,-4e-05,-6e-05,-0.00015,-7e-05,0.00031,-0.00013,-0.0002,-8e-05,4.0
17390.0,-4e-05,-6e-05,-0.00015,-7e-05,0.00031,-0.00013,-0.0002,-8e-05,4.0
17391.0,-4e-05,-6e-05,-0.00015,-7e-05,0.00031,-0.00013,-0.0002,-8e-05,4.0
17392.0,-4e-05,-6e-05,-0.00015,-7e-05,0.00031,-0.00013,-0.0002,-8e-05,4.0
17393.0,-4e-05,-6e-05,-0.00015,-7e-05,0.00031,-0.00013,-0.0002,-8e-05,4.0
17394.0,-4e-05,-6e-05,-0.00015,-7e-05,0.00031,-0.00013,-0.0002,-8e-05,4.0
17395.0,-4e-05,-6e-05,-0.00015,-7e-05,0.00031,-0.00013,-0.0002,-8e-05,4.0
17396.0,-4e-05,-6e-05,-0.00015,-7e-05,0.00031,-0.00013,-0.0002,-8e-05,4.0
17397.0,-4e-05,-6e-05,-0.00015,-7e-05,0.00031,-0.00013,-0.0002,-8e-05,4.0
17398.0,-4e-05,-6e-05,-0.00015,-7e-05,0.00031,-0.00013,-0.0002,-8e-05,4.0
17399.0,-4e-05,-6e-05,-0.00015,-7e-05,0.00031,-0.00013,-0.0002,-8e-05,4.0
17400.0,-4e-05,-6e-05,-0.00015,-7e-05,0.00031,-0.00013,-0.0002,-8e-05,4.0
17401.0,-4e-05,-6e-05,-0.00015,-7e-05,0.00031,-0.00013,-0.0002,-8e-05,4.0
17402.0,-4e-05,0.0,0.0,8e-05,0.00013,8e-05,0.0,-9e-05,4.0
17403.0,-4e-05,0.0,0.0,8e-05,0.00013,8e-05,0.0,-9e-05,4.0
17404.0,-4e-05,0.0,0.0,8e-05,0.00013,8e-05,0.0,-9e-05,4.0
17405.0,-4e-05,0.0,0.0,8e-05,0.00013,8e-05,0.0,-9e-05,4.0
17406.0,-4e-05,0.0,0.0,8e-05,0.00013,8e-05,0.0,-9e-05,4.0
17407.0,-4e-05,0.0,0.0,8e-05,0.00013,8e-05,0.0,-9e-05,4.0
17408.0,-4e-05,0.0,0.0,8e-05,0.00013,8e-05,0.0,-9e-05,4.0
17409.0,0.00012,0.00017,0.00018,0.00042,0.00058,0.00031,0.00022,0.00013,4.0
17410.0,0.00012,0.00017,0.00018,0.00042,0.00058,0.00031,0.00022,0.00013,4.0
17411.0,0.00012,0.00017,0.00018,0.00042,0.00058,0.00031,0.00022,0.00013,4.0
17412.0,0.00012,0.00017,0.00018,0.00042,0.00058,0.00031,0.00022,0.00013,4.0
17413.0,0.00012,0.00017,0.00018,0.00042,0.00058,0.00031,0.00022,0.00013,4.0
17414.0,0.00012,0.00017,0.00018,0.00042,0.00058,0.00031,0.00022,0.00013,4.0
17415.0,0.00012,0.00017,0.00018,0.00042,0.00058,0.00031,0.00022,0.00013,4.0
17416.0,0.00012,0.00017,0.00018,0.00042,0.00058,0.00031,0.00022,0.00013,4.0
17417.0,0.00012,0.00017,0.00018,0.00042,0.00058,0.00031,0.00022,0.00013,4.0
17418.0,0.00012,0.00017,0.00018,0.00042,0.00058,0.00031,0.00022,0.00013,4.0
17419.0,0.00012,0.00017,0.00018,0.00042,0.00058,0.00031,0.00022,0.00013,4.0
17420.0,0.00012,0.00017,0.00018,0.00042,0.00058,0.00031,0.00022,0.00013,4.0
17421.0,0.00012,0.00017,0.00018,0.00042,0.00058,0.00031,0.00022,0.00013,4.0
17422.0,0.00012,0.00017,0.00018,0.00042,0.00058,0.00031,0.00022,0.00013,4.0
17423.0,0.00012,0.00017,0.00018,0.00042,0.00058,0.00031,0.00022,0.00013,4.0
17424.0,-4e-05,-2e-05,7e-05,-0.00016,-0.0004,-1e-05,0.0,-5e-05,4.0
17425.0,-2e-05,2e-05,-2e-05,1e-05,0.00012,8e-05,7e-05,2e-05,4.0
17426.0,-2e-05,2e-05,-2e-05,1e-05,0.00012,8e-05,7e-05,2e-05,4.0
17427.0,-2e-05,2e-05,-2e-05,1e-05,0.00012,8e-05,7e-05,2e-05,4.0
17428.0,-2e-05,2e-05,-2e-05,1e-05,0.00012,8e-05,7e-05,2e-05,4.0
17429.0,-2e-05,2e-05,-2e-05,1e-05,0.00012,8e-05,7e-05,2e-05,4.0
17430.0,-2e-05,2e-05,-2e-05,1e-05,0.00012,8e-05,7e-05,2e-05,4.0
17431.0,-2e-05,1e-05,-7e-05,-6e-05,1e-05,-5e-05,-3e-05,-1e-05,4.0
17432.0,-2e-05,1e-05,-7e-05,-6e-05,1e-05,-5e-05,-3e-05,-1e-05,4.0
17433.0,1e-05,0.0,2e-05,4e-05,1e-05,0.00011,2e-05,3e-05,4.0
17434.0,1e-05,0.0,2e-05,4e-05,1e-05,0.00011,2e-05,3e-05,4.0
17435.0,1e-05,0.0,2e-05,4e-05,1e-05,0.00011,2e-05,3e-05,4.0
17436.0,1e-05,0.0,2e-05,4e-05,1e-05,0.00011,2e-05,3e-05,4.0
17438.0,1e-05,0.0,2e-05,4e-05,1e-05,0.00011,2e-05,3e-05,4.0
17439.0,1e-05,0.0,2e-05,4e-05,1e-05,0.00011,2e-05,3e-05,4.0
17440.0,1e-05,0.0,2e-05,4e-05,1e-05,0.00011,2e-05,3e-05,4.0
17441.0,1e-05,0.0,2e-05,4e-05,1e-05,0.00011,2e-05,3e-05,4.0
17442.0,1e-05,0.0,2e-05,4e-05,1e-05,0.00011,2e-05,3e-05,4.0
17443.0,1e-05,0.0,2e-05,4e-05,1e-05,0.00011,2e-05,3e-05,4.0
17444.0,1e-05,0.0,2e-05,4e-05,1e-05,0.00011,2e-05,3e-05,4.0
17445.0,1e-05,0.0,2e-05,4e-05,1e-05,0.00011,2e-05,3e-05,4.0
17446.0,1e-05,0.0,2e-05,4e-05,1e-05,0.00011,2e-05,3e-05,4.0
17447.0,1e-05,0.0,2e-05,4e-05,1e-05,0.00011,2e-05,3e-05,4.0
17448.0,1e-05,0.0,2e-05,4e-05,1e-05,0.00011,2e-05,3e-05,4.0
17449.0,1e-05,0.0,2e-05,4e-05,1e-05,0.00011,2e-05,3e-05,4.0
17450.0,1e-05,0.0,2e-05,4e-05,1e-05,0.00011,2e-05,3e-05,4.0
17451.0,1e-05,0.0,2e-05,4e-05,1e-05,0.00011,2e-05,3e-05,4.0
17452.0,1e-05,0.0,2e-05,4e-05,1e-05,0.00011,2e-05,3e-05,4.0
17453.0,1e-05,0.0,2e-05,4e-05,1e-05,0.00011,2e-05,3e-05,4.0
17454.0,1e-05,0.0,-4e-05,-7e-05,5e-05,0.0,4e-05,3e-05,4.0
17455.0,-6e-05,-9e-05,-0.0001,-0.00029,-0.0006,-0.00027,-0.00011,-8e-05,4.0
17456.0,-6e-05,-9e-05,-0.0001,-0.00029,-0.0006,-0.00027,-0.00011,-8e-05,4.0
17457.0,-6e-05,-9e-05,-0.0001,-0.00029,-0.0006,-0.00027,-0.00011,-8e-05,4.0
17458.0,-6e-05,-9e-05,-0.0001,-0.00029,-0.0006,-0.00027,-0.00011,-8e-05,4.0
17459.0,-6e-05,-9e-05,-0.0001,-0.00029,-0.0006,-0.00027,-0.00011,-8e-05,4.0
17460.0,-6e-05,-9e-05,-0.0001,-0.00029,-0.0006,-0.00027,-0.00011,-8e-05,4.0
17461.0,-6e-05,-9e-05,-0.0001,-0.00029,-0.0006,-0.00027,-0.00011,-8e-05,4.0
17462.0,-6e-05,-9e-05,-0.0001,-0.00029,-0.0006,-0.00027,-0.00011,-8e-05,4.0
17463.0,-6e-05,-9e-05,-0.0001,-0.00029,-0.0006,-0.00027,-0.00011,-8e-05,4.0
17464.0,-6e-05,-9e-05,-0.0001,-0.00029,-0.0006,-0.00027,-0.00011,-8e-05,4.0
17465.0,-6e-05,-9e-05,-0.0001,-0.00029,-0.0006,-0.00027,-0.00011,-8e-05,4.0
17466.0,-6e-05,-9e-05,-0.0001,-0.00029,-0.0006,-0.00027,-0.00011,-8e-05,4.0
17467.0,-6e-05,-9e-05,-0.0001,-0.00029,-0.0006,-0.00027,-0.00011,-8e-05,4.0
17468.0,-6e-05,-9e-05,-0.0001,-0.00029,-0.0006,-0.00027,-0.00011,-8e-05,4.0
17469.0,-6e-05,-9e-05,-0.0001,-0.00029,-0.0006,-0.00027,-0.00011,-8e-05,4.0
17470.0,-6e-05,-9e-05,-0.0001,-0.00029,-0.0006,-0.00027,-0.00011,-8e-05,4.0
17471.0,-6e-05,-9e-05,-0.0001,-0.00029,-0.0006,-0.00027,-0.00011,-8e-05,4.0
17472.0,-6e-05,-9e-05,-0.0001,-0.00029,-0.0006,-0.00027,-0.00011,-8e-05,4.0
17473.0,-6e-05,-9e-05,-0.0001,-0.00029,-0.0006,-0.00027,-0.00011,-8e-05,4.0
17474.0,-6e-05,-9e-05,-0.0001,-0.00029,-0.0006,-0.00027,-0.00011,-8e-05,4.0
17475.0,1e-05,1e-05,-1e-05,6e-05,0.0002,-4e-05,-2e-05,1e-05,4.0
17476.0,1e-05,1e-05,-1e-05,6e-05,0.0002,-4e-05,-2e-05,1e-05,4.0
17477.0,1e-05,1e-05,-1e-05,6e-05,0.0002,-4e-05,-2e-05,1e-05,4.0
17478.0,1e-05,1e-05,-1e-05,6e-05,0.0002,-4e-05,-2e-05,1e-05,4.0
17479.0,1e-05,1e-05,-1e-05,6e-05,0.0002,-4e-05,-2e-05,1e-05,4.0
17480.0,1e-05,1e-05,-1e-05,6e-05,0.0002,-4e-05,-2e-05,1e-05,4.0
17481.0,1e-05,1e-05,-1e-05,6e-05,0.0002,-4e-05,-2e-05,1e-05,4.0
17482.0,1e-05,1e-05,-1e-05,6e-05,0.0002,-4e-05,-2e-05,1e-05,4.0
17483.0,1e-05,1e-05,-1e-05,6e-05,0.0002,-4e-05,-2e-05,1e-05,4.0
17484.0,-6e-05,-0.00014,-5e-05,0.00014,7e-05,4e-05,1e-05,0.0,4.0
17485.0,-6e-05,-0.00014,-5e-05,0.00014,7e-05,4e-05,1e-05,0.0,4.0
17486.0,-6e-05,-0.00014,-5e-05,0.00014,7e-05,4e-05,1e-05,0.0,4.0
17488.0,-6e-05,-0.00014,-5e-05,0.00014,7e-05,4e-05,1e-05,0.0,4.0
17489.0,-6e-05,-0.00014,-5e-05,0.00014,7e-05,4e-05,1e-05,0.0,4.0
17490.0,-6e-05,-0.00014,-5e-05,0.00014,7e-05,4e-05,1e-05,0.0,4.0
17491.0,-6e-05,-0.00014,-5e-05,0.00014,7e-05,4e-05,1e-05,0.0,4.0
17492.0,-6e-05,-0.00014,-5e-05,0.00014,7e-05,4e-05,1e-05,0.0,4.0
17493.0,-6e-05,-0.00014,-5e-05,0.00014,7e-05,4e-05,1e-05,0.0,4.0
17494.0,-6e-05,-0.00014,-5e-05,0.00014,7e-05,4e-05,1e-05,0.0,4.0
17495.0,-6e-05,-0.00014,-5e-05,0.00014,7e-05,4e-05,1e-05,0.0,4.0
17496.0,-6e-05,-0.00014,-5e-05,0.00014,7e-05,4e-05,1e-05,0.0,4.0
17497.0,-6e-05,-0.00014,-5e-05,0.00014,7e-05,4e-05,1e-05,0.0,4.0
17498.0,-6e-05,-0.00014,-5e-05,0.00014,7e-05,4e-05,1e-05,0.0,4.0
17499.0,5e-05,4e-05,6e-05,-0.00012,-6e-05,-1e-05,7e-05,4e-05,4.0
17500.0,0.0,-3e-05,2e-05,4e-05,-1e-05,-9e-05,-1e-05,1e-05,4.0
17501.0,0.0,-3e-05,2e-05,4e-05,-1e-05,-9e-05,-1e-05,1e-05,4.0
17502.0,0.0,-3e-05,2e-05,4e-05,-1e-05,-9e-05,-1e-05,1e-05,4.0
17503.0,0.0,-3e-05,2e-05,4e-05,-1e-05,-9e-05,-1e-05,1e-05,4.0
17504.0,0.0,-3e-05,2e-05,4e-05,-1e-05,-9e-05,-1e-05,1e-05,4.0
17505.0,0.0,-3e-05,2e-05,4e-05,-1e-05,-9e-05,-1e-05,1e-05,4.0
17506.0,0.0,-3e-05,2e-05,4e-05,-1e-05,-9e-05,-1e-05,1e-05,4.0
17507.0,0.0,-3e-05,2e-05,4e-05,-1e-05,-9e-05,-1e-05,1e-05,4.0
17508.0,0.0,-3e-05,2e-05,4e-05,-1e-05,-9e-05,-1e-05,1e-05,4.0
17509.0,0.0,-3e-05,2e-05,4e-05,-1e-05,-9e-05,-1e-05,1e-05,4.0
17510.0,0.0,-3e-05,2e-05,4e-05,-1e-05,-9e-05,-1e-05,1e-05,4.0
17511.0,0.0,-3e-05,2e-05,4e-05,-1e-05,-9e-05,-1e-05,1e-05,4.0
17512.0,0.0,-3e-05,2e-05,4e-05,-1e-05,-9e-05,-1e-05,1e-05,4.0
17513.0,0.0,-3e-05,2e-05,4e-05,-1e-05,-9e-05,-1e-05,1e-05,4.0
17514.0,-4e-05,-5e-05,-3e-05,0.0001,0.00012,-8e-05,-9e-05,-5e-05,4.0
17515.0,-1e-05,1e-05,2e-05,-0.00016,-0.00033,-0.00012,2e-05,2e-05,4.0
17516.0,-1e-05,1e-05,2e-05,-0.00016,-0.00033,-0.00012,2e-05,2e-05,4.0
17517.0,-1e-05,1e-05,2e-05,-0.00016,-0.00033,-0.00012,2e-05,2e-05,4.0
17518.0,-1e-05,1e-05,2e-05,-0.00016,-0.00033,-0.00012,2e-05,2e-05,4.0
17519.0,-1e-05,1e-05,2e-05,-0.00016,-0.00033,-0.00012,2e-05,2e-05,4.0
17520.0,-1e-05,1e-05,2e-05,-0.00016,-0.00033,-0.00012,2e-05,2e-05,4.0
17521.0,-1e-05,1e-05,2e-05,-0.00016,-0.00033,-0.00012,2e-05,2e-05,4.0
17522.0,-1e-05,1e-05,2e-05,-0.00016,-0.00033,-0.00012,2e-05,2e-05,4.0
17523.0,-1e-05,1e-05,2e-05,-0.00016,-0.00033,-0.00012,2e-05,2e-05,4.0
17524.0,-1e-05,1e-05,2e-05,-0.00016,-0.00033,-0.00012,2e-05,2e-05,4.0
17525.0,-1e-05,1e-05,2e-05,-0.00016,-0.00033,-0.00012,2e-05,2e-05,4.0
17526.0,-1e-05,1e-05,2e-05,-0.00016,-0.00033,-0.00012,2e-05,2e-05,4.0
17527.0,-2e-05,-6e-05,-6e-05,-9e-05,-0.00013,6e-05,2e-05,-2e-05,4.0
17528.0,-2e-05,-6e-05,-6e-05,-9e-05,-0.00013,6e-05,2e-05,-2e-05,4.0
17529.0,-2e-05,-6e-05,-6e-05,-9e-05,-0.00013,6e-05,2e-05,-2e-05,4.0
17530.0,-2e-05,-6e-05,-6e-05,-9e-05,-0.00013,6e-05,2e-05,-2e-05,4.0
17531.0,-2e-05,-6e-05,-6e-05,-9e-05,-0.00013,6e-05,2e-05,-2e-05,4.0
17532.0,-2e-05,-6e-05,-6e-05,-9e-05,-0.00013,6e-05,2e-05,-2e-05,4.0
17533.0,-2e-05,-6e-05,-6e-05,-9e-05,-0.00013,6e-05,2e-05,-2e-05,4.0
17534.0,-2e-05,-6e-05,-6e-05,-9e-05,-0.00013,6e-05,2e-05,-2e-05,4.0
17535.0,-2e-05,-6e-05,-6e-05,-9e-05,-0.00013,6e-05,2e-05,-2e-05,4.0
17536.0,0.0,5e-05,0.00017,0.00025,0.00035,0.00023,5e-05,0.0,4.0
17539.0,0.0,5e-05,0.00017,0.00025,0.00035,0.00023,5e-05,0.0,4.0
17540.0,0.0,5e-05,0.00017,0.00025,0.00035,0.00023,5e-05,0.0,4.0
17541.0,0.0,5e-05,0.00017,0.00025,0.00035,0.00023,5e-05,0.0,4.0
17542.0,0.0,5e-05,0.00017,0.00025,0.00035,0.00023,5e-05,0.0,4.0
17543.0,0.0,5e-05,0.00017,0.00025,0.00035,0.00023,5e-05,0.0,4.0
17544.0,0.0,5e-05,0.00017,0.00025,0.00035,0.00023,5e-05,0.0,4.0
17545.0,0.0,5e-05,0.00017,0.00025,0.00035,0.00023,5e-05,0.0,4.0
17546.0,0.0,5e-05,0.00017,0.00025,0.00035,0.00023,5e-05,0.0,4.0
17547.0,0.0,5e-05,0.00017,0.00025,0.00035,0.00023,5e-05,0.0,4.0
17548.0,0.0,5e-05,0.00017,0.00025,0.00035,0.00023,5e-05,0.0,4.0
17549.0,0.0,5e-05,0.00017,0.00025,0.00035,0.00023,5e-05,0.0,4.0
17550.0,0.0,5e-05,0.00017,0.00025,0.00035,0.00023,5e-05,0.0,4.0
17551.0,0.0,5e-05,0.00017,0.00025,0.00035,0.00023,5e-05,0.0,4.0
17552.0,0.0,5e-05,0.00017,0.00025,0.00035,0.00023,5e-05,0.0,4.0
17553.0,0.0,5e-05,0.00017,0.00025,0.00035,0.00023,5e-05,0.0,4.0
17554.0,0.0,5e-05,0.00017,0.00025,0.00035,0.00023,5e-05,0.0,4.0
17555.0,0.0,5e-05,0.00017,0.00025,0.00035,0.00023,5e-05,0.0,4.0
17556.0,0.0,5e-05,0.00017,0.00025,0.00035,0.00023,5e-05,0.0,4.0
17557.0,0.0,5e-05,0.00017,0.00025,0.00035,0.00023,5e-05,0.0,4.0
17558.0,0.0,5e-05,0.00017,0.00025,0.00035,0.00023,5e-05,0.0,4.0
17559.0,-5e-05,-2e-05,4e-05,5e-05,3e-05,-0.0001,-0.0001,-6e-05,4.0
17560.0,5e-05,3e-05,-2e-05,-0.0001,1e-05,4e-05,8e-05,5e-05,4.0
17561.0,5e-05,3e-05,-2e-05,-0.0001,1e-05,4e-05,8e-05,5e-05,4.0
17562.0,5e-05,3e-05,-2e-05,-0.0001,1e-05,4e-05,8e-05,5e-05,4.0
17563.0,5e-05,3e-05,-2e-05,-0.0001,1e-05,4e-05,8e-05,5e-05,4.0
17564.0,5e-05,3e-05,-2e-05,-0.0001,1e-05,4e-05,8e-05,5e-05,4.0
17565.0,5e-05,3e-05,-2e-05,-0.0001,1e-05,4e-05,8e-05,5e-05,4.0
17566.0,5e-05,3e-05,-2e-05,-0.0001,1e-05,4e-05,8e-05,5e-05,4.0
17567.0,5e-05,3e-05,-2e-05,-0.0001,1e-05,4e-05,8e-05,5e-05,4.0
17568.0,5e-05,3e-05,-2e-05,-0.0001,1e-05,4e-05,8e-05,5e-05,4.0
17569.0,5e-05,3e-05,-2e-05,-0.0001,1e-05,4e-05,8e-05,5e-05,4.0
17570.0,5e-05,3e-05,-2e-05,-0.0001,1e-05,4e-05,8e-05,5e-05,4.0
17571.0,5e-05,3e-05,-2e-05,-0.0001,1e-05,4e-05,8e-05,5e-05,4.0
17572.0,5e-05,3e-05,-2e-05,-0.0001,1e-05,4e-05,8e-05,5e-05,4.0
17573.0,5e-05,3e-05,-2e-05,-0.0001,1e-05,4e-05,8e-05,5e-05,4.0
17574.0,-4e-05,-8e-05,-0.00016,-0.00012,0.00013,6e-05,4e-05,1e-05,4.0
17575.0,-2e-05,-2e-05,5e-05,0.0,-3e-05,-0.00015,-5e-05,-4e-05,4.0
17576.0,0.0,4e-05,-2e-05,-8e-05,-0.00025,3e-05,4e-05,-2e-05,4.0
17577.0,0.0,4e-05,-2e-05,-8e-05,-0.00025,3e-05,4e-05,-2e-05,4.0
17578.0,0.0,4e-05,-2e-05,-8e-05,-0.00025,3e-05,4e-05,-2e-05,4.0
17579.0,0.0,4e-05,-2e-05,-8e-05,-0.00025,3e-05,4e-05,-2e-05,4.0
17580.0,0.0,4e-05,-2e-05,-8e-05,-0.00025,3e-05,4e-05,-2e-05,4.0
17581.0,0.0,4e-05,-2e-05,-8e-05,-0.00025,3e-05,4e-05,-2e-05,4.0
17582.0,0.0,4e-05,-2e-05,-8e-05,-0.00025,3e-05,4e-05,-2e-05,4.0
17583.0,0.0,4e-05,-2e-05,-8e-05,-0.00025,3e-05,4e-05,-2e-05,4.0
17584.0,0.0,4e-05,-2e-05,-8e-05,-0.00025,3e-05,4e-05,-2e-05,4.0
17585.0,0.0,4e-05,-2e-05,-8e-05,-0.00025,3e-05,4e-05,-2e-05,4.0
17586.0,0.0,4e-05,-2e-05,-8e-05,-0.00025,3e-05,4e-05,-2e-05,4.0
17589.0,-8e-05,-0.00015,-0.0001,-2e-05,-0.00029,-0.00044,-0.00017,-6e-05,4.0
17590.0,-8e-05,-0.00015,-0.0001,-2e-05,-0.00029,-0.00044,-0.00017,-6e-05,4.0
17591.0,-8e-05,-0.00015,-0.0001,-2e-05,-0.00029,-0.00044,-0.00017,-6e-05,4.0
17592.0,-8e-05,-0.00015,-0.0001,-2e-05,-0.00029,-0.00044,-0.00017,-6e-05,4.0
17593.0,-8e-05,-0.00015,-0.0001,-2e-05,-0.00029,-0.00044,-0.00017,-6e-05,4.0
17594.0,-8e-05,-0.00015,-0.0001,-2e-05,-0.00029,-0.00044,-0.00017,-6e-05,4.0
17595.0,-8e-05,-0.00015,-0.0001,-2e-05,-0.00029,-0.00044,-0.00017,-6e-05,4.0
17596.0,2e-05,-1e-05,-7e-05,-8e-05,-8e-05,8e-05,-5e-05,-1e-05,4.0
17597.0,2e-05,-1e-05,-7e-05,-8e-05,-8e-05,8e-05,-5e-05,-1e-05,4.0
17598.0,2e-05,-1e-05,-7e-05,-8e-05,-8e-05,8e-05,-5e-05,-1e-05,4.0
17599.0,2e-05,-1e-05,-7e-05,-8e-05,-8e-05,8e-05,-5e-05,-1e-05,4.0
17600.0,2e-05,-1e-05,-7e-05,-8e-05,-8e-05,8e-05,-5e-05,-1e-05,4.0
17601.0,2e-05,-1e-05,-7e-05,-8e-05,-8e-05,8e-05,-5e-05,-1e-05,4.0
17602.0,2e-05,-1e-05,-7e-05,-8e-05,-8e-05,8e-05,-5e-05,-1e-05,4.0
17603.0,2e-05,-1e-05,-7e-05,-8e-05,-8e-05,8e-05,-5e-05,-1e-05,4.0
17604.0,2e-05,-1e-05,-7e-05,-8e-05,-8e-05,8e-05,-5e-05,-1e-05,4.0
17605.0,2e-05,-1e-05,-7e-05,-8e-05,-8e-05,8e-05,-5e-05,-1e-05,4.0
17606.0,2e-05,-1e-05,-7e-05,-8e-05,-8e-05,8e-05,-5e-05,-1e-05,4.0
17607.0,2e-05,-1e-05,-7e-05,-8e-05,-8e-05,8e-05,-5e-05,-1e-05,4.0
17608.0,2e-05,-1e-05,-7e-05,-8e-05,-8e-05,8e-05,-5e-05,-1e-05,4.0
17609.0,2e-05,-1e-05,-7e-05,-8e-05,-8e-05,8e-05,-5e-05,-1e-05,4.0
17610.0,2e-05,-1e-05,-7e-05,-8e-05,-8e-05,8e-05,-5e-05,-1e-05,4.0
17611.0,-2e-05,-3e-05,-7e-05,-0.00019,-0.0004,-2e-05,6e-05,1e-05,4.0
17612.0,-2e-05,-3e-05,-7e-05,-0.00019,-0.0004,-2e-05,6e-05,1e-05,4.0
17613.0,-2e-05,-2e-05,-4e-05,-3e-05,-0.00023,-4e-05,-4e-05,-5e-05,4.0
17614.0,-2e-05,-2e-05,-4e-05,-3e-05,-0.00023,-4e-05,-4e-05,-5e-05,4.0
17615.0,-2e-05,-2e-05,-4e-05,-3e-05,-0.00023,-4e-05,-4e-05,-5e-05,4.0
17616.0,-2e-05,-2e-05,-4e-05,-3e-05,-0.00023,-4e-05,-4e-05,-5e-05,4.0
17617.0,-2e-05,-2e-05,-4e-05,-3e-05,-0.00023,-4e-05,-4e-05,-5e-05,4.0
17618.0,-2e-05,-2e-05,-4e-05,-3e-05,-0.00023,-4e-05,-4e-05,-5e-05,4.0
17619.0,-2e-05,-2e-05,-4e-05,-3e-05,-0.00023,-4e-05,-4e-05,-5e-05,4.0
17620.0,-2e-05,-2e-05,-4e-05,-3e-05,-0.00023,-4e-05,-4e-05,-5e-05,4.0
17621.0,-2e-05,-2e-05,-4e-05,-3e-05,-0.00023,-4e-05,-4e-05,-5e-05,4.0
17622.0,-2e-05,-2e-05,-4e-05,-3e-05,-0.00023,-4e-05,-4e-05,-5e-05,4.0
17623.0,-2e-05,-2e-05,-4e-05,-3e-05,-0.00023,-4e-05,-4e-05,-5e-05,4.0
17624.0,-2e-05,-2e-05,-4e-05,-3e-05,-0.00023,-4e-05,-4e-05,-5e-05,4.0
17625.0,-2e-05,-2e-05,-4e-05,-3e-05,-0.00023,-4e-05,-4e-05,-5e-05,4.0
17626.0,-2e-05,-2e-05,-4e-05,-3e-05,-0.00023,-4e-05,-4e-05,-5e-05,4.0
17627.0,-2e-05,-2e-05,-4e-05,-3e-05,-0.00023,-4e-05,-4e-05,-5e-05,4.0
17628.0,-2e-05,-2e-05,-4e-05,-3e-05,-0.00023,-4e-05,-4e-05,-5e-05,4.0
17629.0,-2e-05,-2e-05,-4e-05,-3e-05,-0.00023,-4e-05,-4e-05,-5e-05,4.0
17630.0,-2e-05,-2e-05,-4e-05,-3e-05,-0.00023,-4e-05,-4e-05,-5e-05,4.0
17631.0,-2e-05,-2e-05,-4e-05,-3e-05,-0.00023,-4e-05,-4e-05,-5e-05,4.0
17632.0,-2e-05,-2e-05,-4e-05,-3e-05,-0.00023,-4e-05,-4e-05,-5e-05,4.0
17633.0,-2e-05,-2e-05,-4e-05,-3e-05,-0.00023,-4e-05,-4e-05,-5e-05,4.0
17634.0,2e-05,5e-05,9e-05,3e-05,-8e-05,-2e-05,-3e-05,-2e-05,4.0
17635.0,-5e-05,-0.00012,-0.00034,-0.00024,-0.00022,-0.00012,-3e-05,-2e-05,4.0
17636.0,-5e-05,-0.00012,-0.00034,-0.00024,-0.00022,-0.00012,-3e-05,-2e-05,4.0
17638.0,-5e-05,-0.00012,-0.00034,-0.00024,-0.00022,-0.00012,-3e-05,-2e-05,4.0
17639.0,-5e-05,-0.00012,-0.00034,-0.00024,-0.00022,-0.00012,-3e-05,-2e-05,4.0
17640.0,-5e-05,-0.00012,-0.00034,-0.00024,-0.00022,-0.00012,-3e-05,-2e-05,4.0
17641.0,-5e-05,-0.00012,-0.00034,-0.00024,-0.00022,-0.00012,-3e-05,-2e-05,4.0
17642.0,-5e-05,-0.00012,-0.00034,-0.00024,-0.00022,-0.00012,-3e-05,-2e-05,4.0
17643.0,-5e-05,-0.00012,-0.00034,-0.00024,-0.00022,-0.00012,-3e-05,-2e-05,4.0
17644.0,-5e-05,-0.00012,-0.00034,-0.00024,-0.00022,-0.00012,-3e-05,-2e-05,4.0
17645.0,-5e-05,-0.00012,-0.00034,-0.00024,-0.00022,-0.00012,-3e-05,-2e-05,4.0
17646.0,-5e-05,-0.00012,-0.00034,-0.00024,-0.00022,-0.00012,-3e-05,-2e-05,4.0
17647.0,-5e-05,-0.00012,-0.00034,-0.00024,-0.00022,-0.00012,-3e-05,-2e-05,4.0
17648.0,0.0,1e-05,-4e-05,3e-05,0.00012,-5e-05,-6e-05,-4e-05,4.0
17649.0,0.0,1e-05,-4e-05,3e-05,0.00012,-5e-05,-6e-05,-4e-05,4.0
17650.0,0.0,1e-05,-4e-05,3e-05,0.00012,-5e-05,-6e-05,-4e-05,4.0
17651.0,0.0,1e-05,-4e-05,3e-05,0.00012,-5e-05,-6e-05,-4e-05,4.0
17652.0,0.0,1e-05,-4e-05,3e-05,0.00012,-5e-05,-6e-05,-4e-05,4.0
17653.0,0.0,1e-05,-4e-05,3e-05,0.00012,-5e-05,-6e-05,-4e-05,4.0
17654.0,0.0,1e-05,-4e-05,3e-05,0.00012,-5e-05,-6e-05,-4e-05,4.0
17655.0,0.0,1e-05,-4e-05,3e-05,0.00012,-5e-05,-6e-05,-4e-05,4.0
17656.0,4e-05,8e-05,0.00014,0.00018,0.00026,3e-05,4e-05,5e-05,4.0
17657.0,4e-05,8e-05,0.00014,0.00018,0.00026,3e-05,4e-05,5e-05,4.0
17658.0,4e-05,8e-05,0.00014,0.00018,0.00026,3e-05,4e-05,5e-05,4.0
17659.0,4e-05,8e-05,0.00014,0.00018,0.00026,3e-05,4e-05,5e-05,4.0
17660.0,4e-05,8e-05,0.00014,0.00018,0.00026,3e-05,4e-05,5e-05,4.0
17661.0,4e-05,8e-05,0.00014,0.00018,0.00026,3e-05,4e-05,5e-05,4.0
17662.0,4e-05,8e-05,0.00014,0.00018,0.00026,3e-05,4e-05,5e-05,4.0
17663.0,4e-05,8e-05,0.00014,0.00018,0.00026,3e-05,4e-05,5e-05,4.0
17664.0,4e-05,8e-05,0.00014,0.00018,0.00026,3e-05,4e-05,5e-05,4.0
17665.0,4e-05,8e-05,0.00014,0.00018,0.00026,3e-05,4e-05,5e-05,4.0
17666.0,4e-05,8e-05,0.00014,0.00018,0.00026,3e-05,4e-05,5e-05,4.0
17667.0,4e-05,8e-05,0.00014,0.00018,0.00026,3e-05,4e-05,5e-05,4.0
17668.0,4e-05,8e-05,0.00014,0.00018,0.00026,3e-05,4e-05,5e-05,4.0
17669.0,4e-05,8e-05,0.00014,0.00018,0.00026,3e-05,4e-05,5e-05,4.0
17670.0,4e-05,8e-05,0.00014,0.00018,0.00026,3e-05,4e-05,5e-05,4.0
17671.0,4e-05,8e-05,0.00014,0.00018,0.00026,3e-05,4e-05,5e-05,4.0
17672.0,4e-05,8e-05,0.00014,0.00018,0.00026,3e-05,4e-05,5e-05,4.0
17673.0,4e-05,8e-05,0.00014,0.00018,0.00026,3e-05,4e-05,5e-05,4.0
17674.0,4e-05,8e-05,0.00014,0.00018,0.00026,3e-05,4e-05,5e-05,4.0
17675.0,4e-05,8e-05,0.00014,0.00018,0.00026,3e-05,4e-05,5e-05,4.0
17676.0,4e-05,8e-05,0.00014,0.00018,0.00026,3e-05,4e-05,5e-05,4.0
17677.0,4e-05,8e-05,0.00014,0.00018,0.00026,3e-05,4e-05,5e-05,4.0
17678.0,4e-05,8e-05,0.00014,0.00018,0.00026,3e-05,4e-05,5e-05,4.0
17679.0,4e-05,8e-05,0.00014,0.00018,0.00026,3e-05,4e-05,5e-05,4.0
17680.0,4e-05,8e-05,0.00014,0.00018,0.00026,3e-05,4e-05,5e-05,4.0
17681.0,4e-05,8e-05,0.00014,0.00018,0.00026,3e-05,4e-05,5e-05,4.0
17682.0,4e-05,8e-05,0.00014,0.00018,0.00026,3e-05,4e-05,5e-05,4.0
17683.0,4e-05,8e-05,0.00014,0.00018,0.00026,3e-05,4e-05,5e-05,4.0
17684.0,4e-05,8e-05,0.00014,0.00018,0.00026,3e-05,4e-05,5e-05,4.0
17685.0,4e-05,8e-05,0.00014,0.00018,0.00026,3e-05,4e-05,5e-05,4.0
17687.0,4e-05,8e-05,0.00014,0.00018,0.00026,3e-05,4e-05,5e-05,4.0
17690.0,-3e-05,-6e-05,-7e-05,-8e-05,-6e-05,-6e-05,-8e-05,-6e-05,4.0
17691.0,-3e-05,-6e-05,-7e-05,-8e-05,-6e-05,-6e-05,-8e-05,-6e-05,4.0
17692.0,-3e-05,-6e-05,-7e-05,-8e-05,-6e-05,-6e-05,-8e-05,-6e-05,4.0
17693.0,-3e-05,-6e-05,-7e-05,-8e-05,-6e-05,-6e-05,-8e-05,-6e-05,4.0
17694.0,-3e-05,-6e-05,-7e-05,-8e-05,-6e-05,-6e-05,-8e-05,-6e-05,4.0
17695.0,-3e-05,-6e-05,-7e-05,-8e-05,-6e-05,-6e-05,-8e-05,-6e-05,4.0
17696.0,-3e-05,-6e-05,-7e-05,-8e-05,-6e-05,-6e-05,-8e-05,-6e-05,4.0
17697.0,-3e-05,-6e-05,-7e-05,-8e-05,-6e-05,-6e-05,-8e-05,-6e-05,4.0
17698.0,-3e-05,-6e-05,-7e-05,-8e-05,-6e-05,-6e-05,-8e-05,-6e-05,4.0
17699.0,-3e-05,-6e-05,-7e-05,-8e-05,-6e-05,-6e-05,-8e-05,-6e-05,4.0
17700.0,-3e-05,-6e-05,-7e-05,-8e-05,-6e-05,-6e-05,-8e-05,-6e-05,4.0
17701.0,-6e-05,-0.00013,-2e-05,0.0001,0.00026,0.00043,6e-05,-1e-05,4.0
17702.0,-6e-05,-0.00013,-2e-05,0.0001,0.00026,0.00043,6e-05,-1e-05,4.0
17703.0,1e-05,3e-05,0.00012,2e-05,7e-05,1e-05,-2e-05,0.0,4.0
17704.0,1e-05,3e-05,0.00012,2e-05,7e-05,1e-05,-2e-05,0.0,4.0
17705.0,1e-05,3e-05,0.00012,2e-05,7e-05,1e-05,-2e-05,0.0,4.0
17706.0,1e-05,3e-05,0.00012,2e-05,7e-05,1e-05,-2e-05,0.0,4.0
17707.0,-2e-05,1e-05,4e-05,9e-05,4e-05,7e-05,4e-05,2e-05,4.0
