time,channel1,channel2,channel3,channel4,channel5,channel6,channel7,channel8,class
46542.0,-0.00014,-0.00017,-0.00026,-0.00049,-0.00075,-0.00048,-0.00035,-0.00018,4.0
46543.0,-0.00014,-0.00017,-0.00026,-0.00049,-0.00075,-0.00048,-0.00035,-0.00018,4.0
46544.0,-0.00014,-0.00017,-0.00026,-0.00049,-0.00075,-0.00048,-0.00035,-0.00018,4.0
46545.0,-0.00014,-0.00017,-0.00026,-0.00049,-0.00075,-0.00048,-0.00035,-0.00018,4.0
46546.0,-0.00014,-0.00017,-0.00026,-0.00049,-0.00075,-0.00048,-0.00035,-0.00018,4.0
46547.0,-0.00014,-0.00017,-0.00026,-0.00049,-0.00075,-0.00048,-0.00035,-0.00018,4.0
46549.0,-0.00014,-0.00017,-0.00026,-0.00049,-0.00075,-0.00048,-0.00035,-0.00018,4.0
46550.0,-0.00014,-0.00017,-0.00026,-0.00049,-0.00075,-0.00048,-0.00035,-0.00018,4.0
46551.0,-0.00014,-0.00017,-0.00026,-0.00049,-0.00075,-0.00048,-0.00035,-0.00018,4.0
46552.0,-0.00014,-0.00017,-0.00026,-0.00049,-0.00075,-0.00048,-0.00035,-0.00018,4.0
46553.0,-0.00014,-0.00017,-0.00026,-0.00049,-0.00075,-0.00048,-0.00035,-0.00018,4.0
46554.0,-0.00014,-0.00017,-0.00026,-0.00049,-0.00075,-0.00048,-0.00035,-0.00018,4.0
46555.0,-0.00014,-0.00017,-0.00026,-0.00049,-0.00075,-0.00048,-0.00035,-0.00018,4.0
46556.0,-0.00014,-0.00017,-0.00026,-0.00049,-0.00075,-0.00048,-0.00035,-0.00018,4.0
46557.0,-0.00014,-0.00017,-0.00026,-0.00049,-0.00075,-0.00048,-0.00035,-0.00018,4.0
46558.0,-0.00014,-0.00017,-0.00026,-0.00049,-0.00075,-0.00048,-0.00035,-0.00018,4.0
46559.0,-0.00014,-0.00017,-0.00026,-0.00049,-0.00075,-0.00048,-0.00035,-0.00018,4.0
46560.0,-0.00014,-0.00017,-0.00026,-0.00049,-0.00075,-0.00048,-0.00035,-0.00018,4.0
46561.0,-0.00014,-0.00017,-0.00026,-0.00049,-0.00075,-0.00048,-0.00035,-0.00018,4.0
46562.0,-0.00014,-0.00017,-0.00026,-0.00049,-0.00075,-0.00048,-0.00035,-0.00018,4.0
46563.0,-0.00013,-0.00015,-0.0003,-0.00074,-0.00096,-0.00057,-0.00025,-0.00012,4.0
46564.0,0.0,-3e-05,-8e-05,-8e-05,-0.00029,-0.00029,-0.00013,-3e-05,4.0
46565.0,0.0,-3e-05,-8e-05,-8e-05,-0.00029,-0.00029,-0.00013,-3e-05,4.0
46566.0,0.0,-3e-05,-8e-05,-8e-05,-0.00029,-0.00029,-0.00013,-3e-05,4.0
46567.0,0.0,-3e-05,-8e-05,-8e-05,-0.00029,-0.00029,-0.00013,-3e-05,4.0
46568.0,0.0,-3e-05,-8e-05,-8e-05,-0.00029,-0.00029,-0.00013,-3e-05,4.0
46569.0,0.0,-3e-05,-8e-05,-8e-05,-0.00029,-0.00029,-0.00013,-3e-05,4.0
46570.0,0.0,-3e-05,-8e-05,-8e-05,-0.00029,-0.00029,-0.00013,-3e-05,4.0
46571.0,0.0,-3e-05,-8e-05,-8e-05,-0.00029,-0.00029,-0.00013,-3e-05,4.0
46572.0,0.0,-3e-05,-8e-05,-8e-05,-0.00029,-0.00029,-0.00013,-3e-05,4.0
46573.0,0.0,-3e-05,-8e-05,-8e-05,-0.00029,-0.00029,-0.00013,-3e-05,4.0
46574.0,0.0,-3e-05,-8e-05,-8e-05,-0.00029,-0.00029,-0.00013,-3e-05,4.0
46575.0,0.0,-3e-05,-8e-05,-8e-05,-0.00029,-0.00029,-0.00013,-3e-05,4.0
46576.0,0.0,-3e-05,-8e-05,-8e-05,-0.00029,-0.00029,-0.00013,-3e-05,4.0
46577.0,0.0,-3e-05,-8e-05,-8e-05,-0.00029,-0.00029,-0.00013,-3e-05,4.0
46578.0,0.0,-3e-05,-8e-05,-8e-05,-0.00029,-0.00029,-0.00013,-3e-05,4.0
46579.0,0.0,-3e-05,-8e-05,-8e-05,-0.00029,-0.00029,-0.00013,-3e-05,4.0
46580.0,0.0,-3e-05,-8e-05,-8e-05,-0.00029,-0.00029,-0.00013,-3e-05,4.0
46581.0,0.0,-3e-05,-8e-05,-8e-05,-0.00029,-0.00029,-0.00013,-3e-05,4.0
46582.0,-0.0001,-0.00017,-0.00023,-0.00017,-0.00036,-0.00024,-0.00018,-0.00014,4.0
46583.0,2e-05,3e-05,0.00011,0.00021,0.00023,0.0002,0.0001,5e-05,4.0
46584.0,2e-05,3e-05,0.00011,0.00021,0.00023,0.0002,0.0001,5e-05,4.0
46585.0,2e-05,3e-05,0.00011,0.00021,0.00023,0.0002,0.0001,5e-05,4.0
46586.0,2e-05,3e-05,0.00011,0.00021,0.00023,0.0002,0.0001,5e-05,4.0
46588.0,2e-05,3e-05,0.00011,0.00021,0.00023,0.0002,0.0001,5e-05,4.0
46589.0,2e-05,3e-05,0.00011,0.00021,0.00023,0.0002,0.0001,5e-05,4.0
46590.0,2e-05,3e-05,0.00011,0.00021,0.00023,0.0002,0.0001,5e-05,4.0
46591.0,2e-05,3e-05,0.00011,0.00021,0.00023,0.0002,0.0001,5e-05,4.0
46592.0,2e-05,3e-05,0.00011,0.00021,0.00023,0.0002,0.0001,5e-05,4.0
46593.0,2e-05,3e-05,0.00011,0.00021,0.00023,0.0002,0.0001,5e-05,4.0
46594.0,2e-05,3e-05,0.00011,0.00021,0.00023,0.0002,0.0001,5e-05,4.0
46595.0,2e-05,3e-05,0.00011,0.00021,0.00023,0.0002,0.0001,5e-05,4.0
46597.0,2e-05,3e-05,0.00011,0.00021,0.00023,0.0002,0.0001,5e-05,4.0
46598.0,2e-05,3e-05,0.00011,0.00021,0.00023,0.0002,0.0001,5e-05,4.0
46599.0,2e-05,3e-05,0.00011,0.00021,0.00023,0.0002,0.0001,5e-05,4.0
46600.0,2e-05,3e-05,0.00011,0.00021,0.00023,0.0002,0.0001,5e-05,4.0
46601.0,2e-05,3e-05,0.00011,0.00021,0.00023,0.0002,0.0001,5e-05,4.0
46602.0,2e-05,3e-05,0.00011,0.00021,0.00023,0.0002,0.0001,5e-05,4.0
46603.0,2e-05,3e-05,0.00011,0.00021,0.00023,0.0002,0.0001,5e-05,4.0
46604.0,2e-05,3e-05,0.00011,0.00021,0.00023,0.0002,0.0001,5e-05,4.0
46605.0,2e-05,3e-05,0.00011,0.00021,0.00023,0.0002,0.0001,5e-05,4.0
46606.0,2e-05,3e-05,0.00011,0.00021,0.00023,0.0002,0.0001,5e-05,4.0
46607.0,2e-05,3e-05,0.00011,0.00021,0.00023,0.0002,0.0001,5e-05,4.0
46608.0,2e-05,3e-05,0.00011,0.00021,0.00023,0.0002,0.0001,5e-05,4.0
46609.0,2e-05,3e-05,0.00011,0.00021,0.00023,0.0002,0.0001,5e-05,4.0
46610.0,2e-05,3e-05,0.00011,0.00021,0.00023,0.0002,0.0001,5e-05,4.0
46611.0,2e-05,3e-05,0.00011,0.00021,0.00023,0.0002,0.0001,5e-05,4.0
46612.0,2e-05,3e-05,0.00011,0.00021,0.00023,0.0002,0.0001,5e-05,4.0
46613.0,2e-05,3e-05,0.00011,0.00021,0.00023,0.0002,0.0001,5e-05,4.0
46614.0,2e-05,3e-05,0.00011,0.00021,0.00023,0.0002,0.0001,5e-05,4.0
46615.0,2e-05,3e-05,0.00011,0.00021,0.00023,0.0002,0.0001,5e-05,4.0
46616.0,2e-05,3e-05,0.00011,0.00021,0.00023,0.0002,0.0001,5e-05,4.0
46617.0,2e-05,3e-05,0.00011,0.00021,0.00023,0.0002,0.0001,5e-05,4.0
46618.0,2e-05,3e-05,0.00011,0.00021,0.00023,0.0002,0.0001,5e-05,4.0
46619.0,2e-05,3e-05,0.00011,0.00021,0.00023,0.0002,0.0001,5e-05,4.0
46620.0,2e-05,3e-05,0.00011,0.00021,0.00023,0.0002,0.0001,5e-05,4.0
46621.0,2e-05,3e-05,0.00011,0.00021,0.00023,0.0002,0.0001,5e-05,4.0
46622.0,-3e-05,-5e-05,-0.00011,0.0,0.00015,-0.00017,-5e-05,-1e-05,4.0
46623.0,-3e-05,-5e-05,-0.00011,0.0,0.00015,-0.00017,-5e-05,-1e-05,4.0
46624.0,4e-05,5e-05,6e-05,-0.00015,-0.00041,0.00012,9e-05,6e-05,4.0
46626.0,4e-05,5e-05,6e-05,-0.00015,-0.00041,0.00012,9e-05,6e-05,4.0
46627.0,4e-05,5e-05,6e-05,-0.00015,-0.00041,0.00012,9e-05,6e-05,4.0
46628.0,4e-05,5e-05,6e-05,-0.00015,-0.00041,0.00012,9e-05,6e-05,4.0
46629.0,4e-05,5e-05,6e-05,-0.00015,-0.00041,0.00012,9e-05,6e-05,4.0
46630.0,4e-05,5e-05,6e-05,-0.00015,-0.00041,0.00012,9e-05,6e-05,4.0
46631.0,4e-05,5e-05,6e-05,-0.00015,-0.00041,0.00012,9e-05,6e-05,4.0
46632.0,4e-05,5e-05,6e-05,-0.00015,-0.00041,0.00012,9e-05,6e-05,4.0
46633.0,4e-05,5e-05,6e-05,-0.00015,-0.00041,0.00012,9e-05,6e-05,4.0
46634.0,4e-05,5e-05,6e-05,-0.00015,-0.00041,0.00012,9e-05,6e-05,4.0
46635.0,4e-05,5e-05,6e-05,-0.00015,-0.00041,0.00012,9e-05,6e-05,4.0
46636.0,4e-05,5e-05,6e-05,-0.00015,-0.00041,0.00012,9e-05,6e-05,4.0
46639.0,-0.0001,-0.00011,-9e-05,3e-05,5e-05,-0.00014,-0.0002,-0.00019,4.0
46640.0,-0.0001,-0.00011,-9e-05,3e-05,5e-05,-0.00014,-0.0002,-0.00019,4.0
46641.0,-0.0002,-0.00021,-0.00032,-0.00044,-0.00094,-0.00095,-0.00039,-0.00032,4.0
46642.0,-0.0002,-0.00021,-0.00032,-0.00044,-0.00094,-0.00095,-0.00039,-0.00032,4.0
46643.0,-0.0002,-0.00021,-0.00032,-0.00044,-0.00094,-0.00095,-0.00039,-0.00032,4.0
46644.0,-0.0002,-0.00021,-0.00032,-0.00044,-0.00094,-0.00095,-0.00039,-0.00032,4.0
46645.0,-0.0002,-0.00021,-0.00032,-0.00044,-0.00094,-0.00095,-0.00039,-0.00032,4.0
46646.0,-0.0002,-0.00021,-0.00032,-0.00044,-0.00094,-0.00095,-0.00039,-0.00032,4.0
46647.0,-0.0002,-0.00021,-0.00032,-0.00044,-0.00094,-0.00095,-0.00039,-0.00032,4.0
46648.0,-0.0002,-0.00021,-0.00032,-0.00044,-0.00094,-0.00095,-0.00039,-0.00032,4.0
46649.0,-0.0002,-0.00021,-0.00032,-0.00044,-0.00094,-0.00095,-0.00039,-0.00032,4.0
46650.0,-0.0002,-0.00021,-0.00032,-0.00044,-0.00094,-0.00095,-0.00039,-0.00032,4.0
46651.0,-0.0002,-0.00021,-0.00032,-0.00044,-0.00094,-0.00095,-0.00039,-0.00032,4.0
46652.0,-0.0002,-0.00021,-0.00032,-0.00044,-0.00094,-0.00095,-0.00039,-0.00032,4.0
46653.0,-0.0002,-0.00021,-0.00032,-0.00044,-0.00094,-0.00095,-0.00039,-0.00032,4.0
46654.0,-0.0002,-0.00021,-0.00032,-0.00044,-0.00094,-0.00095,-0.00039,-0.00032,4.0
46655.0,-0.0002,-0.00021,-0.00032,-0.00044,-0.00094,-0.00095,-0.00039,-0.00032,4.0
46656.0,-0.0002,-0.00021,-0.00032,-0.00044,-0.00094,-0.00095,-0.00039,-0.00032,4.0
46657.0,-0.0002,-0.00021,-0.00032,-0.00044,-0.00094,-0.00095,-0.00039,-0.00032,4.0
46658.0,-0.0002,-0.00021,-0.00032,-0.00044,-0.00094,-0.00095,-0.00039,-0.00032,4.0
46659.0,-0.0002,-0.00021,-0.00032,-0.00044,-0.00094,-0.00095,-0.00039,-0.00032,4.0
46660.0,-0.0002,-0.00021,-0.00032,-0.00044,-0.00094,-0.00095,-0.00039,-0.00032,4.0
46661.0,-0.0002,-0.00021,-0.00032,-0.00044,-0.00094,-0.00095,-0.00039,-0.00032,4.0
46662.0,-0.0002,-0.00021,-0.00032,-0.00044,-0.00094,-0.00095,-0.00039,-0.00032,4.0
46663.0,-0.0002,-0.00021,-0.00032,-0.00044,-0.00094,-0.00095,-0.00039,-0.00032,4.0
46664.0,-0.0002,-0.00021,-0.00032,-0.00044,-0.00094,-0.00095,-0.00039,-0.00032,4.0
46665.0,-0.0002,-0.00021,-0.00032,-0.00044,-0.00094,-0.00095,-0.00039,-0.00032,4.0
46666.0,-0.0002,-0.00021,-0.00032,-0.00044,-0.00094,-0.00095,-0.00039,-0.00032,4.0
46667.0,-0.0002,-0.00021,-0.00032,-0.00044,-0.00094,-0.00095,-0.00039,-0.00032,4.0
46668.0,-0.0002,-0.00021,-0.00032,-0.00044,-0.00094,-0.00095,-0.00039,-0.00032,4.0
46669.0,-0.0002,-0.00021,-0.00032,-0.00044,-0.00094,-0.00095,-0.00039,-0.00032,4.0
46670.0,-0.0002,-0.00021,-0.00032,-0.00044,-0.00094,-0.00095,-0.00039,-0.00032,4.0
46671.0,-0.0002,-0.00021,-0.00032,-0.00044,-0.00094,-0.00095,-0.00039,-0.00032,4.0
46672.0,-0.0002,-0.00021,-0.00032,-0.00044,-0.00094,-0.00095,-0.00039,-0.00032,4.0
46673.0,-0.0002,-0.00021,-0.00032,-0.00044,-0.00094,-0.00095,-0.00039,-0.00032,4.0
46674.0,-0.0002,-0.00021,-0.00032,-0.00044,-0.00094,-0.00095,-0.00039,-0.00032,4.0
46675.0,-0.0002,-0.00021,-0.00032,-0.00044,-0.00094,-0.00095,-0.00039,-0.00032,4.0
46676.0,-0.0002,-0.00021,-0.00032,-0.00044,-0.00094,-0.00095,-0.00039,-0.00032,4.0
46677.0,-0.0002,-0.00021,-0.00032,-0.00044,-0.00094,-0.00095,-0.00039,-0.00032,4.0
46678.0,-0.0002,-0.00021,-0.00032,-0.00044,-0.00094,-0.00095,-0.00039,-0.00032,4.0
46679.0,-0.0002,-0.00021,-0.00032,-0.00044,-0.00094,-0.00095,-0.00039,-0.00032,4.0
46680.0,-0.0002,-0.00021,-0.00032,-0.00044,-0.00094,-0.00095,-0.00039,-0.00032,4.0
46681.0,-0.0002,-0.00021,-0.00032,-0.00044,-0.00094,-0.00095,-0.00039,-0.00032,4.0
46682.0,-0.0002,-0.00021,-0.00032,-0.00044,-0.00094,-0.00095,-0.00039,-0.00032,4.0
46683.0,-0.0002,-0.00021,-0.00032,-0.00044,-0.00094,-0.00095,-0.00039,-0.00032,4.0
46684.0,-0.0002,-0.00021,-0.00032,-0.00044,-0.00094,-0.00095,-0.00039,-0.00032,4.0
46685.0,-0.0002,-0.00021,-0.00032,-0.00044,-0.00094,-0.00095,-0.00039,-0.00032,4.0
46686.0,-0.0002,-0.00021,-0.00032,-0.00044,-0.00094,-0.00095,-0.00039,-0.00032,4.0
46689.0,-0.0002,-0.00021,-0.00032,-0.00044,-0.00094,-0.00095,-0.00039,-0.00032,4.0
46690.0,-0.0002,-0.00021,-0.00032,-0.00044,-0.00094,-0.00095,-0.00039,-0.00032,4.0
46691.0,-0.0002,-0.00021,-0.00032,-0.00044,-0.00094,-0.00095,-0.00039,-0.00032,4.0
46692.0,-0.0002,-0.00021,-0.00032,-0.00044,-0.00094,-0.00095,-0.00039,-0.00032,4.0
46693.0,-0.0002,-0.00021,-0.00032,-0.00044,-0.00094,-0.00095,-0.00039,-0.00032,4.0
46694.0,-0.0002,-0.00021,-0.00032,-0.00044,-0.00094,-0.00095,-0.00039,-0.00032,4.0
46695.0,-0.0002,-0.00021,-0.00032,-0.00044,-0.00094,-0.00095,-0.00039,-0.00032,4.0
46696.0,-0.0002,-0.00021,-0.00032,-0.00044,-0.00094,-0.00095,-0.00039,-0.00032,4.0
46697.0,-0.0002,-0.00021,-0.00032,-0.00044,-0.00094,-0.00095,-0.00039,-0.00032,4.0
46698.0,-0.0002,-0.00021,-0.00032,-0.00044,-0.00094,-0.00095,-0.00039,-0.00032,4.0
46699.0,-0.0002,-0.00021,-0.00032,-0.00044,-0.00094,-0.00095,-0.00039,-0.00032,4.0
46700.0,-0.0002,-0.00021,-0.00032,-0.00044,-0.00094,-0.00095,-0.00039,-0.00032,4.0
46701.0,-0.0002,-0.00021,-0.00032,-0.00044,-0.00094,-0.00095,-0.00039,-0.00032,4.0
46702.0,-0.0002,-0.00021,-0.00032,-0.00044,-0.00094,-0.00095,-0.00039,-0.00032,4.0
46703.0,-0.0002,-0.00021,-0.00032,-0.00044,-0.00094,-0.00095,-0.00039,-0.00032,4.0
46704.0,-0.0002,-0.00021,-0.00032,-0.00044,-0.00094,-0.00095,-0.00039,-0.00032,4.0
46705.0,-0.0002,-0.00021,-0.00032,-0.00044,-0.00094,-0.00095,-0.00039,-0.00032,4.0
46706.0,-0.0002,-0.00021,-0.00032,-0.00044,-0.00094,-0.00095,-0.00039,-0.00032,4.0
46707.0,-0.0002,-0.00021,-0.00032,-0.00044,-0.00094,-0.00095,-0.00039,-0.00032,4.0
46708.0,-0.0002,-0.00021,-0.00032,-0.00044,-0.00094,-0.00095,-0.00039,-0.00032,4.0
46709.0,-0.0002,-0.00021,-0.00032,-0.00044,-0.00094,-0.00095,-0.00039,-0.00032,4.0
46710.0,-0.0002,-0.00021,-0.00032,-0.00044,-0.00094,-0.00095,-0.00039,-0.00032,4.0
46711.0,-0.0002,-0.00021,-0.00032,-0.00044,-0.00094,-0.00095,-0.00039,-0.00032,4.0
46712.0,-0.0002,-0.00021,-0.00032,-0.00044,-0.00094,-0.00095,-0.00039,-0.00032,4.0
46713.0,-0.0002,-0.00021,-0.00032,-0.00044,-0.00094,-0.00095,-0.00039,-0.00032,4.0
46714.0,-0.0002,-0.00021,-0.00032,-0.00044,-0.00094,-0.00095,-0.00039,-0.00032,4.0
46715.0,-0.0002,-0.00021,-0.00032,-0.00044,-0.00094,-0.00095,-0.00039,-0.00032,4.0
46716.0,-0.0002,-0.00021,-0.00032,-0.00044,-0.00094,-0.00095,-0.00039,-0.00032,4.0
46717.0,-0.0002,-0.00021,-0.00032,-0.00044,-0.00094,-0.00095,-0.00039,-0.00032,4.0
46718.0,-0.0002,-0.00021,-0.00032,-0.00044,-0.00094,-0.00095,-0.00039,-0.00032,4.0
46719.0,-0.0002,-0.00021,-0.00032,-0.00044,-0.00094,-0.00095,-0.00039,-0.00032,4.0
46720.0,-0.0002,-0.00021,-0.00032,-0.00044,-0.00094,-0.00095,-0.00039,-0.00032,4.0
46721.0,-0.0002,-0.00021,-0.00032,-0.00044,-0.00094,-0.00095,-0.00039,-0.00032,4.0
46722.0,-0.0002,-0.00021,-0.00032,-0.00044,-0.00094,-0.00095,-0.00039,-0.00032,4.0
46723.0,-0.0002,-0.00021,-0.00032,-0.00044,-0.00094,-0.00095,-0.00039,-0.00032,4.0
46724.0,-0.0002,-0.00021,-0.00032,-0.00044,-0.00094,-0.00095,-0.00039,-0.00032,4.0
46725.0,-0.0002,-0.00021,-0.00032,-0.00044,-0.00094,-0.00095,-0.00039,-0.00032,4.0
46726.0,-0.0002,-0.00021,-0.00032,-0.00044,-0.00094,-0.00095,-0.00039,-0.00032,4.0
46727.0,-0.0002,-0.00021,-0.00032,-0.00044,-0.00094,-0.00095,-0.00039,-0.00032,4.0
46728.0,-0.0002,-0.00021,-0.00032,-0.00044,-0.00094,-0.00095,-0.00039,-0.00032,4.0
46729.0,-0.0002,-0.00021,-0.00032,-0.00044,-0.00094,-0.00095,-0.00039,-0.00032,4.0
46730.0,-0.0002,-0.00021,-0.00032,-0.00044,-0.00094,-0.00095,-0.00039,-0.00032,4.0
46731.0,-0.0002,-0.00021,-0.00032,-0.00044,-0.00094,-0.00095,-0.00039,-0.00032,4.0
46732.0,-0.0002,-0.00021,-0.00032,-0.00044,-0.00094,-0.00095,-0.00039,-0.00032,4.0
46733.0,-0.0002,-0.00021,-0.00032,-0.00044,-0.00094,-0.00095,-0.00039,-0.00032,4.0
46734.0,-0.0002,-0.00021,-0.00032,-0.00044,-0.00094,-0.00095,-0.00039,-0.00032,4.0
46735.0,-0.0002,-0.00021,-0.00032,-0.00044,-0.00094,-0.00095,-0.00039,-0.00032,4.0
46736.0,-0.0002,-0.00021,-0.00032,-0.00044,-0.00094,-0.00095,-0.00039,-0.00032,4.0
46740.0,-0.0002,-0.00021,-0.00032,-0.00044,-0.00094,-0.00095,-0.00039,-0.00032,4.0
46741.0,-0.0002,-0.00021,-0.00032,-0.00044,-0.00094,-0.00095,-0.00039,-0.00032,4.0
46742.0,-0.0002,-0.00021,-0.00032,-0.00044,-0.00094,-0.00095,-0.00039,-0.00032,4.0
46743.0,-0.0002,-0.00021,-0.00032,-0.00044,-0.00094,-0.00095,-0.00039,-0.00032,4.0
46744.0,-0.0002,-0.00021,-0.00032,-0.00044,-0.00094,-0.00095,-0.00039,-0.00032,4.0
46745.0,-0.0002,-0.00021,-0.00032,-0.00044,-0.00094,-0.00095,-0.00039,-0.00032,4.0
46746.0,-0.0002,-0.00021,-0.00032,-0.00044,-0.00094,-0.00095,-0.00039,-0.00032,4.0
46747.0,-0.0002,-0.00021,-0.00032,-0.00044,-0.00094,-0.00095,-0.00039,-0.00032,4.0
46748.0,-0.0002,-0.00021,-0.00032,-0.00044,-0.00094,-0.00095,-0.00039,-0.00032,4.0
46749.0,-0.0002,-0.00021,-0.00032,-0.00044,-0.00094,-0.00095,-0.00039,-0.00032,4.0
46750.0,-0.0002,-0.00021,-0.00032,-0.00044,-0.00094,-0.00095,-0.00039,-0.00032,4.0
46751.0,-0.0002,-0.00021,-0.00032,-0.00044,-0.00094,-0.00095,-0.00039,-0.00032,4.0
46752.0,-0.0002,-0.00021,-0.00032,-0.00044,-0.00094,-0.00095,-0.00039,-0.00032,4.0
46753.0,-0.0002,-0.00021,-0.00032,-0.00044,-0.00094,-0.00095,-0.00039,-0.00032,4.0
46754.0,-0.0002,-0.00021,-0.00032,-0.00044,-0.00094,-0.00095,-0.00039,-0.00032,4.0
46755.0,-0.0002,-0.00021,-0.00032,-0.00044,-0.00094,-0.00095,-0.00039,-0.00032,4.0
46756.0,-0.0002,-0.00021,-0.00032,-0.00044,-0.00094,-0.00095,-0.00039,-0.00032,4.0
46757.0,-0.0002,-0.00021,-0.00032,-0.00044,-0.00094,-0.00095,-0.00039,-0.00032,4.0
46758.0,-0.0002,-0.00021,-0.00032,-0.00044,-0.00094,-0.00095,-0.00039,-0.00032,4.0
46759.0,-0.0002,-0.00021,-0.00032,-0.00044,-0.00094,-0.00095,-0.00039,-0.00032,4.0
46760.0,-0.0002,-0.00021,-0.00032,-0.00044,-0.00094,-0.00095,-0.00039,-0.00032,4.0
46761.0,-0.0002,-0.00021,-0.00032,-0.00044,-0.00094,-0.00095,-0.00039,-0.00032,4.0
46762.0,-0.0002,-0.00021,-0.00032,-0.00044,-0.00094,-0.00095,-0.00039,-0.00032,4.0
46763.0,-0.0002,-0.00021,-0.00032,-0.00044,-0.00094,-0.00095,-0.00039,-0.00032,4.0
46764.0,-0.0002,-0.00021,-0.00032,-0.00044,-0.00094,-0.00095,-0.00039,-0.00032,4.0
46765.0,-0.0002,-0.00021,-0.00032,-0.00044,-0.00094,-0.00095,-0.00039,-0.00032,4.0
46766.0,-0.0002,-0.00021,-0.00032,-0.00044,-0.00094,-0.00095,-0.00039,-0.00032,4.0
46767.0,-0.0002,-0.00021,-0.00032,-0.00044,-0.00094,-0.00095,-0.00039,-0.00032,4.0
46768.0,-0.0002,-0.00021,-0.00032,-0.00044,-0.00094,-0.00095,-0.00039,-0.00032,4.0
46769.0,-0.0002,-0.00021,-0.00032,-0.00044,-0.00094,-0.00095,-0.00039,-0.00032,4.0
46770.0,-3e-05,0.0,-2e-05,-0.00021,-0.00055,-5e-05,1e-05,-4e-05,4.0
46771.0,-3e-05,0.0,-2e-05,-0.00021,-0.00055,-5e-05,1e-05,-4e-05,4.0
46772.0,-3e-05,0.0,-2e-05,-0.00021,-0.00055,-5e-05,1e-05,-4e-05,4.0
46773.0,-3e-05,0.0,-2e-05,-0.00021,-0.00055,-5e-05,1e-05,-4e-05,4.0
46774.0,-3e-05,0.0,-2e-05,-0.00021,-0.00055,-5e-05,1e-05,-4e-05,4.0
46775.0,-3e-05,0.0,-2e-05,-0.00021,-0.00055,-5e-05,1e-05,-4e-05,4.0
46776.0,-3e-05,0.0,-2e-05,-0.00021,-0.00055,-5e-05,1e-05,-4e-05,4.0
46777.0,-3e-05,0.0,-2e-05,-0.00021,-0.00055,-5e-05,1e-05,-4e-05,4.0
46778.0,-3e-05,0.0,-2e-05,-0.00021,-0.00055,-5e-05,1e-05,-4e-05,4.0
46779.0,-3e-05,0.0,-2e-05,-0.00021,-0.00055,-5e-05,1e-05,-4e-05,4.0
46780.0,-3e-05,0.0,-2e-05,-0.00021,-0.00055,-5e-05,1e-05,-4e-05,4.0
46781.0,-3e-05,0.0,-2e-05,-0.00021,-0.00055,-5e-05,1e-05,-4e-05,4.0
46782.0,-3e-05,0.0,-2e-05,-0.00021,-0.00055,-5e-05,1e-05,-4e-05,4.0
46783.0,-3e-05,0.0,-2e-05,-0.00021,-0.00055,-5e-05,1e-05,-4e-05,4.0
46784.0,-3e-05,0.0,-2e-05,-0.00021,-0.00055,-5e-05,1e-05,-4e-05,4.0
46785.0,-3e-05,0.0,-2e-05,-0.00021,-0.00055,-5e-05,1e-05,-4e-05,4.0
46787.0,0.00016,0.00018,0.00026,0.00029,0.00032,0.00052,0.00036,0.00025,4.0
46790.0,0.00016,0.00018,0.00026,0.00029,0.00032,0.00052,0.00036,0.00025,4.0
46791.0,0.00016,0.00018,0.00026,0.00029,0.00032,0.00052,0.00036,0.00025,4.0
46792.0,0.00016,0.00018,0.00026,0.00029,0.00032,0.00052,0.00036,0.00025,4.0
46793.0,0.00016,0.00018,0.00026,0.00029,0.00032,0.00052,0.00036,0.00025,4.0
46794.0,0.00016,0.00018,0.00026,0.00029,0.00032,0.00052,0.00036,0.00025,4.0
46795.0,0.00016,0.00018,0.00026,0.00029,0.00032,0.00052,0.00036,0.00025,4.0
46796.0,0.00016,0.00018,0.00026,0.00029,0.00032,0.00052,0.00036,0.00025,4.0
46797.0,0.00016,0.00018,0.00026,0.00029,0.00032,0.00052,0.00036,0.00025,4.0
46798.0,0.00016,0.00018,0.00026,0.00029,0.00032,0.00052,0.00036,0.00025,4.0
46799.0,0.00016,0.00018,0.00026,0.00029,0.00032,0.00052,0.00036,0.00025,4.0
46800.0,0.00016,0.00018,0.00026,0.00029,0.00032,0.00052,0.00036,0.00025,4.0
46801.0,0.00016,0.00018,0.00026,0.00029,0.00032,0.00052,0.00036,0.00025,4.0
46802.0,0.00016,0.00018,0.00026,0.00029,0.00032,0.00052,0.00036,0.00025,4.0
46803.0,0.00016,0.00018,0.00026,0.00029,0.00032,0.00052,0.00036,0.00025,4.0
46804.0,0.00016,0.00018,0.00026,0.00029,0.00032,0.00052,0.00036,0.00025,4.0
46805.0,0.00016,0.00018,0.00026,0.00029,0.00032,0.00052,0.00036,0.00025,4.0
46806.0,0.00016,0.00018,0.00026,0.00029,0.00032,0.00052,0.00036,0.00025,4.0
46807.0,0.00016,0.00018,0.00026,0.00029,0.00032,0.00052,0.00036,0.00025,4.0
46808.0,0.00016,0.00018,0.00026,0.00029,0.00032,0.00052,0.00036,0.00025,4.0
46809.0,0.00016,0.00018,0.00026,0.00029,0.00032,0.00052,0.00036,0.00025,4.0
46810.0,0.00016,0.00018,0.00026,0.00029,0.00032,0.00052,0.00036,0.00025,4.0
46811.0,0.00016,0.00018,0.00026,0.00029,0.00032,0.00052,0.00036,0.00025,4.0
46812.0,0.00016,0.00018,0.00026,0.00029,0.00032,0.00052,0.00036,0.00025,4.0
46813.0,0.00016,0.00018,0.00026,0.00029,0.00032,0.00052,0.00036,0.00025,4.0
46814.0,0.00016,0.00018,0.00026,0.00029,0.00032,0.00052,0.00036,0.00025,4.0
46815.0,0.00016,0.00018,0.00026,0.00029,0.00032,0.00052,0.00036,0.00025,4.0
46816.0,0.00016,0.00018,0.00026,0.00029,0.00032,0.00052,0.00036,0.00025,4.0
46817.0,1e-05,1e-05,-4e-05,-0.00017,5e-05,0.00029,0.00011,3e-05,4.0
46818.0,2e-05,3e-05,6e-05,4e-05,-6e-05,0.0001,0.0,3e-05,4.0
46819.0,-7e-05,-0.00014,-0.00021,-0.00053,-0.00061,-0.00026,-0.00012,-4e-05,4.0
46820.0,0.00012,0.0002,0.00039,0.00083,0.00115,0.00072,0.00031,0.0,4.0
46821.0,0.00012,0.0002,0.00039,0.00083,0.00115,0.00072,0.00031,0.0,4.0
46822.0,0.00012,0.0002,0.00039,0.00083,0.00115,0.00072,0.00031,0.0,4.0
46823.0,0.00012,0.0002,0.00039,0.00083,0.00115,0.00072,0.00031,0.0,4.0
46824.0,0.00012,0.0002,0.00039,0.00083,0.00115,0.00072,0.00031,0.0,4.0
46825.0,0.00012,0.0002,0.00039,0.00083,0.00115,0.00072,0.00031,0.0,4.0
46826.0,0.00012,0.0002,0.00039,0.00083,0.00115,0.00072,0.00031,0.0,4.0
46827.0,0.00012,0.0002,0.00039,0.00083,0.00115,0.00072,0.00031,0.0,4.0
46828.0,0.00012,0.0002,0.00039,0.00083,0.00115,0.00072,0.00031,0.0,4.0
46829.0,0.00012,0.0002,0.00039,0.00083,0.00115,0.00072,0.00031,0.0,4.0
46830.0,0.00012,0.0002,0.00039,0.00083,0.00115,0.00072,0.00031,0.0,4.0
46831.0,0.00012,0.0002,0.00039,0.00083,0.00115,0.00072,0.00031,0.0,4.0
46832.0,0.00012,0.0002,0.00039,0.00083,0.00115,0.00072,0.00031,0.0,4.0
46833.0,0.00012,0.0002,0.00039,0.00083,0.00115,0.00072,0.00031,0.0,4.0
46834.0,0.00012,0.0002,0.00039,0.00083,0.00115,0.00072,0.00031,0.0,4.0
46835.0,0.00012,0.0002,0.00039,0.00083,0.00115,0.00072,0.00031,0.0,4.0
46836.0,0.00012,0.0002,0.00039,0.00083,0.00115,0.00072,0.00031,0.0,4.0
46839.0,-7e-05,-0.00013,-0.00023,-0.00042,-0.00075,-0.00042,-0.0002,-8e-05,4.0
46840.0,-7e-05,-0.00013,-0.00023,-0.00042,-0.00075,-0.00042,-0.0002,-8e-05,4.0
46841.0,-7e-05,-0.00013,-0.00023,-0.00042,-0.00075,-0.00042,-0.0002,-8e-05,4.0
46842.0,-7e-05,-0.00013,-0.00023,-0.00042,-0.00075,-0.00042,-0.0002,-8e-05,4.0
46843.0,-7e-05,-0.00013,-0.00023,-0.00042,-0.00075,-0.00042,-0.0002,-8e-05,4.0
46844.0,-7e-05,-0.00013,-0.00023,-0.00042,-0.00075,-0.00042,-0.0002,-8e-05,4.0
46845.0,-7e-05,-0.00013,-0.00023,-0.00042,-0.00075,-0.00042,-0.0002,-8e-05,4.0
46846.0,-7e-05,-0.00013,-0.00023,-0.00042,-0.00075,-0.00042,-0.0002,-8e-05,4.0
46847.0,-7e-05,-0.00013,-0.00023,-0.00042,-0.00075,-0.00042,-0.0002,-8e-05,4.0
46848.0,-7e-05,-0.00013,-0.00023,-0.00042,-0.00075,-0.00042,-0.0002,-8e-05,4.0
46849.0,-7e-05,-0.00013,-0.00023,-0.00042,-0.00075,-0.00042,-0.0002,-8e-05,4.0
46850.0,-7e-05,-0.00013,-0.00023,-0.00042,-0.00075,-0.00042,-0.0002,-8e-05,4.0
46851.0,-7e-05,-0.00013,-0.00023,-0.00042,-0.00075,-0.00042,-0.0002,-8e-05,4.0
46852.0,-7e-05,-0.00013,-0.00023,-0.00042,-0.00075,-0.00042,-0.0002,-8e-05,4.0
46853.0,-7e-05,-0.00013,-0.00023,-0.00042,-0.00075,-0.00042,-0.0002,-8e-05,4.0
46854.0,-7e-05,-0.00013,-0.00023,-0.00042,-0.00075,-0.00042,-0.0002,-8e-05,4.0
46855.0,-7e-05,-0.00013,-0.00023,-0.00042,-0.00075,-0.00042,-0.0002,-8e-05,4.0
46856.0,-7e-05,-0.00013,-0.00023,-0.00042,-0.00075,-0.00042,-0.0002,-8e-05,4.0
46857.0,-7e-05,-0.00013,-0.00023,-0.00042,-0.00075,-0.00042,-0.0002,-8e-05,4.0
46858.0,-7e-05,-0.00013,-0.00023,-0.00042,-0.00075,-0.00042,-0.0002,-8e-05,4.0
46859.0,-7e-05,-0.00013,-0.00023,-0.00042,-0.00075,-0.00042,-0.0002,-8e-05,4.0
46860.0,-7e-05,-0.00013,-0.00023,-0.00042,-0.00075,-0.00042,-0.0002,-8e-05,4.0
46861.0,-7e-05,-0.00013,-0.00023,-0.00042,-0.00075,-0.00042,-0.0002,-8e-05,4.0
46862.0,-7e-05,-0.00013,-0.00023,-0.00042,-0.00075,-0.00042,-0.0002,-8e-05,4.0
46863.0,-7e-05,-0.00013,-0.00023,-0.00042,-0.00075,-0.00042,-0.0002,-8e-05,4.0
46864.0,-7e-05,-0.00013,-0.00023,-0.00042,-0.00075,-0.00042,-0.0002,-8e-05,4.0
46865.0,-7e-05,-0.00013,-0.00023,-0.00042,-0.00075,-0.00042,-0.0002,-8e-05,4.0
46866.0,-7e-05,-0.00013,-0.00023,-0.00042,-0.00075,-0.00042,-0.0002,-8e-05,4.0
46867.0,-7e-05,-0.00013,-0.00023,-0.00042,-0.00075,-0.00042,-0.0002,-8e-05,4.0
46868.0,-7e-05,-0.00013,-0.00023,-0.00042,-0.00075,-0.00042,-0.0002,-8e-05,4.0
46869.0,-7e-05,-0.00013,-0.00023,-0.00042,-0.00075,-0.00042,-0.0002,-8e-05,4.0
46870.0,-7e-05,-0.00013,-0.00023,-0.00042,-0.00075,-0.00042,-0.0002,-8e-05,4.0
46871.0,-7e-05,-0.00013,-0.00023,-0.00042,-0.00075,-0.00042,-0.0002,-8e-05,4.0
46872.0,-7e-05,-0.00013,-0.00023,-0.00042,-0.00075,-0.00042,-0.0002,-8e-05,4.0
46873.0,-7e-05,-0.00013,-0.00023,-0.00042,-0.00075,-0.00042,-0.0002,-8e-05,4.0
46874.0,-7e-05,-0.00013,-0.00023,-0.00042,-0.00075,-0.00042,-0.0002,-8e-05,4.0
46875.0,-7e-05,-0.00013,-0.00023,-0.00042,-0.00075,-0.00042,-0.0002,-8e-05,4.0
46876.0,-7e-05,-0.00013,-0.00023,-0.00042,-0.00075,-0.00042,-0.0002,-8e-05,4.0
46877.0,-7e-05,-0.00013,-0.00023,-0.00042,-0.00075,-0.00042,-0.0002,-8e-05,4.0
46878.0,-7e-05,-0.00013,-0.00023,-0.00042,-0.00075,-0.00042,-0.0002,-8e-05,4.0
46879.0,-7e-05,-0.00013,-0.00023,-0.00042,-0.00075,-0.00042,-0.0002,-8e-05,4.0
46880.0,-7e-05,-0.00013,-0.00023,-0.00042,-0.00075,-0.00042,-0.0002,-8e-05,4.0
46881.0,-7e-05,-0.00013,-0.00023,-0.00042,-0.00075,-0.00042,-0.0002,-8e-05,4.0
46882.0,-7e-05,-0.00013,-0.00023,-0.00042,-0.00075,-0.00042,-0.0002,-8e-05,4.0
46883.0,-7e-05,-0.00013,-0.00023,-0.00042,-0.00075,-0.00042,-0.0002,-8e-05,4.0
46884.0,-7e-05,-0.00013,-0.00023,-0.00042,-0.00075,-0.00042,-0.0002,-8e-05,4.0
46885.0,-7e-05,-0.00013,-0.00023,-0.00042,-0.00075,-0.00042,-0.0002,-8e-05,4.0
46886.0,-7e-05,-0.00013,-0.00023,-0.00042,-0.00075,-0.00042,-0.0002,-8e-05,4.0
46889.0,-7e-05,-0.00013,-0.00023,-0.00042,-0.00075,-0.00042,-0.0002,-8e-05,4.0
46890.0,-7e-05,-0.00013,-0.00023,-0.00042,-0.00075,-0.00042,-0.0002,-8e-05,4.0
46891.0,0.00016,0.00022,0.00039,0.00062,0.00084,0.00073,0.00043,0.00025,4.0
46892.0,-0.0001,-8e-05,-0.00016,-0.00016,-6e-05,-0.00017,-0.00021,-0.00022,4.0
46893.0,-6e-05,-5e-05,-8e-05,-7e-05,0.00021,3e-05,-0.00012,-7e-05,4.0
46894.0,-6e-05,-5e-05,-8e-05,-7e-05,0.00021,3e-05,-0.00012,-7e-05,4.0
46895.0,-6e-05,-5e-05,-8e-05,-7e-05,0.00021,3e-05,-0.00012,-7e-05,4.0
46896.0,-6e-05,-5e-05,-8e-05,-7e-05,0.00021,3e-05,-0.00012,-7e-05,4.0
46897.0,-6e-05,-5e-05,-8e-05,-7e-05,0.00021,3e-05,-0.00012,-7e-05,4.0
46898.0,-6e-05,-5e-05,-8e-05,-7e-05,0.00021,3e-05,-0.00012,-7e-05,4.0
46899.0,-6e-05,-5e-05,-8e-05,-7e-05,0.00021,3e-05,-0.00012,-7e-05,4.0
46900.0,-6e-05,-5e-05,-8e-05,-7e-05,0.00021,3e-05,-0.00012,-7e-05,4.0
46901.0,-6e-05,-5e-05,-8e-05,-7e-05,0.00021,3e-05,-0.00012,-7e-05,4.0
46902.0,-6e-05,-5e-05,-8e-05,-7e-05,0.00021,3e-05,-0.00012,-7e-05,4.0
46903.0,-6e-05,-5e-05,-8e-05,-7e-05,0.00021,3e-05,-0.00012,-7e-05,4.0
46904.0,-6e-05,-5e-05,-8e-05,-7e-05,0.00021,3e-05,-0.00012,-7e-05,4.0
46905.0,-6e-05,-5e-05,-8e-05,-7e-05,0.00021,3e-05,-0.00012,-7e-05,4.0
46906.0,-6e-05,-5e-05,-8e-05,-7e-05,0.00021,3e-05,-0.00012,-7e-05,4.0
46907.0,-6e-05,-5e-05,-8e-05,-7e-05,0.00021,3e-05,-0.00012,-7e-05,4.0
46908.0,-6e-05,-5e-05,-8e-05,-7e-05,0.00021,3e-05,-0.00012,-7e-05,4.0
46909.0,-6e-05,-5e-05,-8e-05,-7e-05,0.00021,3e-05,-0.00012,-7e-05,4.0
46910.0,-6e-05,-5e-05,-8e-05,-7e-05,0.00021,3e-05,-0.00012,-7e-05,4.0
46911.0,-6e-05,-5e-05,-8e-05,-7e-05,0.00021,3e-05,-0.00012,-7e-05,4.0
46912.0,-6e-05,-5e-05,-8e-05,-7e-05,0.00021,3e-05,-0.00012,-7e-05,4.0
46913.0,-6e-05,-5e-05,-8e-05,-7e-05,0.00021,3e-05,-0.00012,-7e-05,4.0
46914.0,-6e-05,-5e-05,-8e-05,-7e-05,0.00021,3e-05,-0.00012,-7e-05,4.0
46915.0,-6e-05,-5e-05,-8e-05,-7e-05,0.00021,3e-05,-0.00012,-7e-05,4.0
46916.0,-6e-05,-5e-05,-8e-05,-7e-05,0.00021,3e-05,-0.00012,-7e-05,4.0
46917.0,-6e-05,-5e-05,-8e-05,-7e-05,0.00021,3e-05,-0.00012,-7e-05,4.0
46918.0,-6e-05,-5e-05,-8e-05,-7e-05,0.00021,3e-05,-0.00012,-7e-05,4.0
46919.0,-6e-05,-5e-05,-8e-05,-7e-05,0.00021,3e-05,-0.00012,-7e-05,4.0
46920.0,-6e-05,-5e-05,-8e-05,-7e-05,0.00021,3e-05,-0.00012,-7e-05,4.0
46921.0,0.0,-4e-05,-8e-05,-0.00019,-0.00022,-4e-05,-3e-05,0.0,4.0
46922.0,0.0,-4e-05,-8e-05,-0.00019,-0.00022,-4e-05,-3e-05,0.0,4.0
46923.0,0.0,-4e-05,-8e-05,-0.00019,-0.00022,-4e-05,-3e-05,0.0,4.0
46924.0,0.0,-4e-05,-8e-05,-0.00019,-0.00022,-4e-05,-3e-05,0.0,4.0
46925.0,0.0,-4e-05,-8e-05,-0.00019,-0.00022,-4e-05,-3e-05,0.0,4.0
46926.0,0.0,-4e-05,-8e-05,-0.00019,-0.00022,-4e-05,-3e-05,0.0,4.0
46927.0,0.0,-4e-05,-8e-05,-0.00019,-0.00022,-4e-05,-3e-05,0.0,4.0
46928.0,0.0,-4e-05,-8e-05,-0.00019,-0.00022,-4e-05,-3e-05,0.0,4.0
46929.0,0.0,-4e-05,-8e-05,-0.00019,-0.00022,-4e-05,-3e-05,0.0,4.0
46930.0,0.0,-4e-05,-8e-05,-0.00019,-0.00022,-4e-05,-3e-05,0.0,4.0
46931.0,0.0,-4e-05,-8e-05,-0.00019,-0.00022,-4e-05,-3e-05,0.0,4.0
46932.0,0.0,-4e-05,-8e-05,-0.00019,-0.00022,-4e-05,-3e-05,0.0,4.0
46933.0,0.0,-4e-05,-8e-05,-0.00019,-0.00022,-4e-05,-3e-05,0.0,4.0
46934.0,0.0,-4e-05,-8e-05,-0.00019,-0.00022,-4e-05,-3e-05,0.0,4.0
46935.0,0.0,-4e-05,-8e-05,-0.00019,-0.00022,-4e-05,-3e-05,0.0,4.0
46937.0,0.0,-4e-05,-8e-05,-0.00019,-0.00022,-4e-05,-3e-05,0.0,4.0
46940.0,0.0,-4e-05,-8e-05,-0.00019,-0.00022,-4e-05,-3e-05,0.0,4.0
46941.0,0.0,-4e-05,-8e-05,-0.00019,-0.00022,-4e-05,-3e-05,0.0,4.0
46942.0,0.0,-4e-05,-8e-05,-0.00019,-0.00022,-4e-05,-3e-05,0.0,4.0
46943.0,0.0,-4e-05,-8e-05,-0.00019,-0.00022,-4e-05,-3e-05,0.0,4.0
46944.0,0.0,-4e-05,-8e-05,-0.00019,-0.00022,-4e-05,-3e-05,0.0,4.0
46945.0,0.0,-4e-05,-8e-05,-0.00019,-0.00022,-4e-05,-3e-05,0.0,4.0
46946.0,0.0,-4e-05,-8e-05,-0.00019,-0.00022,-4e-05,-3e-05,0.0,4.0
46947.0,0.0,-4e-05,-8e-05,-0.00019,-0.00022,-4e-05,-3e-05,0.0,4.0
46948.0,0.0,-4e-05,-8e-05,-0.00019,-0.00022,-4e-05,-3e-05,0.0,4.0
46949.0,0.0,-4e-05,-8e-05,-0.00019,-0.00022,-4e-05,-3e-05,0.0,4.0
46950.0,0.0,-4e-05,-8e-05,-0.00019,-0.00022,-4e-05,-3e-05,0.0,4.0
46951.0,0.0,-4e-05,-8e-05,-0.00019,-0.00022,-4e-05,-3e-05,0.0,4.0
46952.0,0.0,-4e-05,-8e-05,-0.00019,-0.00022,-4e-05,-3e-05,0.0,4.0
46953.0,0.0,-4e-05,-8e-05,-0.00019,-0.00022,-4e-05,-3e-05,0.0,4.0
46954.0,0.0,-4e-05,-8e-05,-0.00019,-0.00022,-4e-05,-3e-05,0.0,4.0
46955.0,0.0,-4e-05,-8e-05,-0.00019,-0.00022,-4e-05,-3e-05,0.0,4.0
46956.0,0.0,-4e-05,-8e-05,-0.00019,-0.00022,-4e-05,-3e-05,0.0,4.0
46957.0,0.0,-4e-05,-8e-05,-0.00019,-0.00022,-4e-05,-3e-05,0.0,4.0
46958.0,0.0,-4e-05,-8e-05,-0.00019,-0.00022,-4e-05,-3e-05,0.0,4.0
46959.0,0.0,-4e-05,-8e-05,-0.00019,-0.00022,-4e-05,-3e-05,0.0,4.0
46960.0,0.0,-4e-05,-8e-05,-0.00019,-0.00022,-4e-05,-3e-05,0.0,4.0
46961.0,0.0,-4e-05,-8e-05,-0.00019,-0.00022,-4e-05,-3e-05,0.0,4.0
46962.0,0.0,-4e-05,-8e-05,-0.00019,-0.00022,-4e-05,-3e-05,0.0,4.0
46963.0,0.0,-4e-05,-8e-05,-0.00019,-0.00022,-4e-05,-3e-05,0.0,4.0
46964.0,0.0,-4e-05,-8e-05,-0.00019,-0.00022,-4e-05,-3e-05,0.0,4.0
46965.0,0.0,-4e-05,-8e-05,-0.00019,-0.00022,-4e-05,-3e-05,0.0,4.0
46966.0,0.0,-4e-05,-8e-05,-0.00019,-0.00022,-4e-05,-3e-05,0.0,4.0
46967.0,0.0,-4e-05,-8e-05,-0.00019,-0.00022,-4e-05,-3e-05,0.0,4.0
46968.0,0.0,-4e-05,-8e-05,-0.00019,-0.00022,-4e-05,-3e-05,0.0,4.0
46969.0,0.0,-4e-05,-8e-05,-0.00019,-0.00022,-4e-05,-3e-05,0.0,4.0
46970.0,0.0,-4e-05,-8e-05,-0.00019,-0.00022,-4e-05,-3e-05,0.0,4.0
46971.0,0.0,-4e-05,-8e-05,-0.00019,-0.00022,-4e-05,-3e-05,0.0,4.0
46972.0,0.0,-4e-05,-8e-05,-0.00019,-0.00022,-4e-05,-3e-05,0.0,4.0
46973.0,0.0,-4e-05,-8e-05,-0.00019,-0.00022,-4e-05,-3e-05,0.0,4.0
46974.0,0.0,-4e-05,-8e-05,-0.00019,-0.00022,-4e-05,-3e-05,0.0,4.0
46975.0,0.0,-4e-05,-8e-05,-0.00019,-0.00022,-4e-05,-3e-05,0.0,4.0
46976.0,0.0,-4e-05,-8e-05,-0.00019,-0.00022,-4e-05,-3e-05,0.0,4.0
46977.0,0.0,-4e-05,-8e-05,-0.00019,-0.00022,-4e-05,-3e-05,0.0,4.0
46978.0,0.0,-4e-05,-8e-05,-0.00019,-0.00022,-4e-05,-3e-05,0.0,4.0
46979.0,0.0,-4e-05,-8e-05,-0.00019,-0.00022,-4e-05,-3e-05,0.0,4.0
46980.0,0.0,-4e-05,-8e-05,-0.00019,-0.00022,-4e-05,-3e-05,0.0,4.0
46981.0,0.0,-4e-05,-8e-05,-0.00019,-0.00022,-4e-05,-3e-05,0.0,4.0
46982.0,0.0,-4e-05,-8e-05,-0.00019,-0.00022,-4e-05,-3e-05,0.0,4.0
46983.0,0.0,-4e-05,-8e-05,-0.00019,-0.00022,-4e-05,-3e-05,0.0,4.0
46984.0,0.0,-4e-05,-8e-05,-0.00019,-0.00022,-4e-05,-3e-05,0.0,4.0
46985.0,0.0,-4e-05,-8e-05,-0.00019,-0.00022,-4e-05,-3e-05,0.0,4.0
46986.0,0.0,-4e-05,-8e-05,-0.00019,-0.00022,-4e-05,-3e-05,0.0,4.0
46989.0,1e-05,9e-05,0.00017,0.00039,0.00049,3e-05,3e-05,-6e-05,4.0
46990.0,1e-05,9e-05,0.00017,0.00039,0.00049,3e-05,3e-05,-6e-05,4.0
46991.0,1e-05,9e-05,0.00017,0.00039,0.00049,3e-05,3e-05,-6e-05,4.0
46992.0,1e-05,9e-05,0.00017,0.00039,0.00049,3e-05,3e-05,-6e-05,4.0
46993.0,1e-05,9e-05,0.00017,0.00039,0.00049,3e-05,3e-05,-6e-05,4.0
46994.0,1e-05,9e-05,0.00017,0.00039,0.00049,3e-05,3e-05,-6e-05,4.0
46995.0,1e-05,9e-05,0.00017,0.00039,0.00049,3e-05,3e-05,-6e-05,4.0
46996.0,1e-05,9e-05,0.00017,0.00039,0.00049,3e-05,3e-05,-6e-05,4.0
46997.0,1e-05,9e-05,0.00017,0.00039,0.00049,3e-05,3e-05,-6e-05,4.0
46998.0,1e-05,9e-05,0.00017,0.00039,0.00049,3e-05,3e-05,-6e-05,4.0
46999.0,1e-05,9e-05,0.00017,0.00039,0.00049,3e-05,3e-05,-6e-05,4.0
47000.0,1e-05,9e-05,0.00017,0.00039,0.00049,3e-05,3e-05,-6e-05,4.0
47001.0,1e-05,9e-05,0.00017,0.00039,0.00049,3e-05,3e-05,-6e-05,4.0
47002.0,1e-05,9e-05,0.00017,0.00039,0.00049,3e-05,3e-05,-6e-05,4.0
47003.0,1e-05,9e-05,0.00017,0.00039,0.00049,3e-05,3e-05,-6e-05,4.0
47004.0,1e-05,9e-05,0.00017,0.00039,0.00049,3e-05,3e-05,-6e-05,4.0
47005.0,1e-05,9e-05,0.00017,0.00039,0.00049,3e-05,3e-05,-6e-05,4.0
47006.0,1e-05,9e-05,0.00017,0.00039,0.00049,3e-05,3e-05,-6e-05,4.0
47007.0,1e-05,9e-05,0.00017,0.00039,0.00049,3e-05,3e-05,-6e-05,4.0
47008.0,1e-05,9e-05,0.00017,0.00039,0.00049,3e-05,3e-05,-6e-05,4.0
47009.0,1e-05,9e-05,0.00017,0.00039,0.00049,3e-05,3e-05,-6e-05,4.0
47010.0,1e-05,9e-05,0.00017,0.00039,0.00049,3e-05,3e-05,-6e-05,4.0
47011.0,1e-05,9e-05,0.00017,0.00039,0.00049,3e-05,3e-05,-6e-05,4.0
47012.0,1e-05,9e-05,0.00017,0.00039,0.00049,3e-05,3e-05,-6e-05,4.0
47013.0,1e-05,9e-05,0.00017,0.00039,0.00049,3e-05,3e-05,-6e-05,4.0
47014.0,1e-05,9e-05,0.00017,0.00039,0.00049,3e-05,3e-05,-6e-05,4.0
47015.0,1e-05,9e-05,0.00017,0.00039,0.00049,3e-05,3e-05,-6e-05,4.0
47016.0,1e-05,9e-05,0.00017,0.00039,0.00049,3e-05,3e-05,-6e-05,4.0
47017.0,1e-05,9e-05,0.00017,0.00039,0.00049,3e-05,3e-05,-6e-05,4.0
47018.0,1e-05,9e-05,0.00017,0.00039,0.00049,3e-05,3e-05,-6e-05,4.0
47020.0,1e-05,9e-05,0.00017,0.00039,0.00049,3e-05,3e-05,-6e-05,4.0
47021.0,1e-05,9e-05,0.00017,0.00039,0.00049,3e-05,3e-05,-6e-05,4.0
47022.0,1e-05,9e-05,0.00017,0.00039,0.00049,3e-05,3e-05,-6e-05,4.0
47023.0,1e-05,9e-05,0.00017,0.00039,0.00049,3e-05,3e-05,-6e-05,4.0
47024.0,1e-05,9e-05,0.00017,0.00039,0.00049,3e-05,3e-05,-6e-05,4.0
47025.0,1e-05,9e-05,0.00017,0.00039,0.00049,3e-05,3e-05,-6e-05,4.0
47026.0,1e-05,9e-05,0.00017,0.00039,0.00049,3e-05,3e-05,-6e-05,4.0
47027.0,1e-05,9e-05,0.00017,0.00039,0.00049,3e-05,3e-05,-6e-05,4.0
47028.0,1e-05,9e-05,0.00017,0.00039,0.00049,3e-05,3e-05,-6e-05,4.0
47029.0,1e-05,9e-05,0.00017,0.00039,0.00049,3e-05,3e-05,-6e-05,4.0
47030.0,1e-05,9e-05,0.00017,0.00039,0.00049,3e-05,3e-05,-6e-05,4.0
47031.0,1e-05,9e-05,0.00017,0.00039,0.00049,3e-05,3e-05,-6e-05,4.0
47032.0,1e-05,9e-05,0.00017,0.00039,0.00049,3e-05,3e-05,-6e-05,4.0
47033.0,1e-05,9e-05,0.00017,0.00039,0.00049,3e-05,3e-05,-6e-05,4.0
47034.0,1e-05,9e-05,0.00017,0.00039,0.00049,3e-05,3e-05,-6e-05,4.0
47035.0,1e-05,9e-05,0.00017,0.00039,0.00049,3e-05,3e-05,-6e-05,4.0
47036.0,1e-05,9e-05,0.00017,0.00039,0.00049,3e-05,3e-05,-6e-05,4.0
47039.0,1e-05,9e-05,0.00017,0.00039,0.00049,3e-05,3e-05,-6e-05,4.0
47040.0,-2e-05,-3e-05,-5e-05,-5e-05,-0.0001,-8e-05,1e-05,-4e-05,4.0
47042.0,-2e-05,-3e-05,-5e-05,-5e-05,-0.0001,-8e-05,1e-05,-4e-05,4.0
47043.0,-2e-05,-3e-05,-5e-05,-5e-05,-0.0001,-8e-05,1e-05,-4e-05,4.0
47044.0,-2e-05,-3e-05,-5e-05,-5e-05,-0.0001,-8e-05,1e-05,-4e-05,4.0
47045.0,-2e-05,-3e-05,-5e-05,-5e-05,-0.0001,-8e-05,1e-05,-4e-05,4.0
47046.0,-2e-05,-3e-05,-5e-05,-5e-05,-0.0001,-8e-05,1e-05,-4e-05,4.0
47047.0,-2e-05,-3e-05,-5e-05,-5e-05,-0.0001,-8e-05,1e-05,-4e-05,4.0
47048.0,-2e-05,-3e-05,-5e-05,-5e-05,-0.0001,-8e-05,1e-05,-4e-05,4.0
47049.0,-2e-05,-3e-05,-5e-05,-5e-05,-0.0001,-8e-05,1e-05,-4e-05,4.0
47050.0,-3e-05,-5e-05,-8e-05,0.0,0.00016,2e-05,-7e-05,-5e-05,4.0
47051.0,7e-05,1e-05,-7e-05,-0.00044,-0.00056,-0.00026,4e-05,0.00012,4.0
47052.0,7e-05,1e-05,-7e-05,-0.00044,-0.00056,-0.00026,4e-05,0.00012,4.0
47053.0,7e-05,1e-05,-7e-05,-0.00044,-0.00056,-0.00026,4e-05,0.00012,4.0
47054.0,7e-05,1e-05,-7e-05,-0.00044,-0.00056,-0.00026,4e-05,0.00012,4.0
47055.0,7e-05,1e-05,-7e-05,-0.00044,-0.00056,-0.00026,4e-05,0.00012,4.0
47056.0,7e-05,1e-05,-7e-05,-0.00044,-0.00056,-0.00026,4e-05,0.00012,4.0
47057.0,7e-05,1e-05,-7e-05,-0.00044,-0.00056,-0.00026,4e-05,0.00012,4.0
47058.0,7e-05,1e-05,-7e-05,-0.00044,-0.00056,-0.00026,4e-05,0.00012,4.0
47059.0,7e-05,1e-05,-7e-05,-0.00044,-0.00056,-0.00026,4e-05,0.00012,4.0
47060.0,7e-05,1e-05,-7e-05,-0.00044,-0.00056,-0.00026,4e-05,0.00012,4.0
47061.0,7e-05,1e-05,-7e-05,-0.00044,-0.00056,-0.00026,4e-05,0.00012,4.0
47062.0,7e-05,1e-05,-7e-05,-0.00044,-0.00056,-0.00026,4e-05,0.00012,4.0
47063.0,7e-05,1e-05,-7e-05,-0.00044,-0.00056,-0.00026,4e-05,0.00012,4.0
47064.0,7e-05,1e-05,-7e-05,-0.00044,-0.00056,-0.00026,4e-05,0.00012,4.0
47065.0,7e-05,1e-05,-7e-05,-0.00044,-0.00056,-0.00026,4e-05,0.00012,4.0
47066.0,7e-05,1e-05,-7e-05,-0.00044,-0.00056,-0.00026,4e-05,0.00012,4.0
47067.0,7e-05,1e-05,-7e-05,-0.00044,-0.00056,-0.00026,4e-05,0.00012,4.0
47068.0,7e-05,1e-05,-7e-05,-0.00044,-0.00056,-0.00026,4e-05,0.00012,4.0
47069.0,7e-05,1e-05,-7e-05,-0.00044,-0.00056,-0.00026,4e-05,0.00012,4.0
47070.0,7e-05,1e-05,-7e-05,-0.00044,-0.00056,-0.00026,4e-05,0.00012,4.0
47071.0,7e-05,1e-05,-7e-05,-0.00044,-0.00056,-0.00026,4e-05,0.00012,4.0
47072.0,7e-05,1e-05,-7e-05,-0.00044,-0.00056,-0.00026,4e-05,0.00012,4.0
47073.0,7e-05,1e-05,-7e-05,-0.00044,-0.00056,-0.00026,4e-05,0.00012,4.0
47074.0,7e-05,1e-05,-7e-05,-0.00044,-0.00056,-0.00026,4e-05,0.00012,4.0
47075.0,7e-05,1e-05,-7e-05,-0.00044,-0.00056,-0.00026,4e-05,0.00012,4.0
47076.0,7e-05,1e-05,-7e-05,-0.00044,-0.00056,-0.00026,4e-05,0.00012,4.0
47077.0,7e-05,1e-05,-7e-05,-0.00044,-0.00056,-0.00026,4e-05,0.00012,4.0
47078.0,7e-05,1e-05,-7e-05,-0.00044,-0.00056,-0.00026,4e-05,0.00012,4.0
47079.0,7e-05,1e-05,-7e-05,-0.00044,-0.00056,-0.00026,4e-05,0.00012,4.0
47080.0,7e-05,1e-05,-7e-05,-0.00044,-0.00056,-0.00026,4e-05,0.00012,4.0
47081.0,7e-05,1e-05,-7e-05,-0.00044,-0.00056,-0.00026,4e-05,0.00012,4.0
47082.0,7e-05,1e-05,-7e-05,-0.00044,-0.00056,-0.00026,4e-05,0.00012,4.0
47083.0,7e-05,1e-05,-7e-05,-0.00044,-0.00056,-0.00026,4e-05,0.00012,4.0
47084.0,7e-05,1e-05,-7e-05,-0.00044,-0.00056,-0.00026,4e-05,0.00012,4.0
47085.0,7e-05,1e-05,-7e-05,-0.00044,-0.00056,-0.00026,4e-05,0.00012,4.0
47086.0,7e-05,1e-05,-7e-05,-0.00044,-0.00056,-0.00026,4e-05,0.00012,4.0
47089.0,7e-05,1e-05,-7e-05,-0.00044,-0.00056,-0.00026,4e-05,0.00012,4.0
47090.0,7e-05,1e-05,-7e-05,-0.00044,-0.00056,-0.00026,4e-05,0.00012,4.0
47091.0,7e-05,1e-05,-7e-05,-0.00044,-0.00056,-0.00026,4e-05,0.00012,4.0
47092.0,7e-05,1e-05,-7e-05,-0.00044,-0.00056,-0.00026,4e-05,0.00012,4.0
47093.0,7e-05,1e-05,-7e-05,-0.00044,-0.00056,-0.00026,4e-05,0.00012,4.0
47094.0,7e-05,1e-05,-7e-05,-0.00044,-0.00056,-0.00026,4e-05,0.00012,4.0
47095.0,7e-05,1e-05,-7e-05,-0.00044,-0.00056,-0.00026,4e-05,0.00012,4.0
47096.0,7e-05,1e-05,-7e-05,-0.00044,-0.00056,-0.00026,4e-05,0.00012,4.0
47097.0,7e-05,1e-05,-7e-05,-0.00044,-0.00056,-0.00026,4e-05,0.00012,4.0
47098.0,7e-05,1e-05,-7e-05,-0.00044,-0.00056,-0.00026,4e-05,0.00012,4.0
47099.0,7e-05,1e-05,-7e-05,-0.00044,-0.00056,-0.00026,4e-05,0.00012,4.0
47100.0,7e-05,1e-05,-7e-05,-0.00044,-0.00056,-0.00026,4e-05,0.00012,4.0
47101.0,0.0,-6e-05,-5e-05,-6e-05,-0.00014,-0.00016,2e-05,1e-05,4.0
47103.0,0.0,-6e-05,-5e-05,-6e-05,-0.00014,-0.00016,2e-05,1e-05,4.0
47104.0,0.0,-6e-05,-5e-05,-6e-05,-0.00014,-0.00016,2e-05,1e-05,4.0
47105.0,0.0,-6e-05,-5e-05,-6e-05,-0.00014,-0.00016,2e-05,1e-05,4.0
47106.0,0.0,-6e-05,-5e-05,-6e-05,-0.00014,-0.00016,2e-05,1e-05,4.0
47107.0,0.0,-6e-05,-5e-05,-6e-05,-0.00014,-0.00016,2e-05,1e-05,4.0
47108.0,0.0,-6e-05,-5e-05,-6e-05,-0.00014,-0.00016,2e-05,1e-05,4.0
47109.0,0.0,-6e-05,-5e-05,-6e-05,-0.00014,-0.00016,2e-05,1e-05,4.0
47110.0,0.0,-6e-05,-5e-05,-6e-05,-0.00014,-0.00016,2e-05,1e-05,4.0
47111.0,0.0,-6e-05,-5e-05,-6e-05,-0.00014,-0.00016,2e-05,1e-05,4.0
47112.0,0.0,-6e-05,-5e-05,-6e-05,-0.00014,-0.00016,2e-05,1e-05,4.0
47113.0,0.0,-6e-05,-5e-05,-6e-05,-0.00014,-0.00016,2e-05,1e-05,4.0
47114.0,0.0,-6e-05,-5e-05,-6e-05,-0.00014,-0.00016,2e-05,1e-05,4.0
47115.0,0.0,-6e-05,-5e-05,-6e-05,-0.00014,-0.00016,2e-05,1e-05,4.0
47116.0,0.0,-6e-05,-5e-05,-6e-05,-0.00014,-0.00016,2e-05,1e-05,4.0
47117.0,0.0,-6e-05,-5e-05,-6e-05,-0.00014,-0.00016,2e-05,1e-05,4.0
47118.0,0.0,-6e-05,-5e-05,-6e-05,-0.00014,-0.00016,2e-05,1e-05,4.0
47119.0,0.0,-6e-05,-5e-05,-6e-05,-0.00014,-0.00016,2e-05,1e-05,4.0
47120.0,0.0,-6e-05,-5e-05,-6e-05,-0.00014,-0.00016,2e-05,1e-05,4.0
47121.0,0.0,-6e-05,-5e-05,-6e-05,-0.00014,-0.00016,2e-05,1e-05,4.0
47122.0,0.0,-6e-05,-5e-05,-6e-05,-0.00014,-0.00016,2e-05,1e-05,4.0
47123.0,0.0,-6e-05,-5e-05,-6e-05,-0.00014,-0.00016,2e-05,1e-05,4.0
47124.0,0.0,-6e-05,-5e-05,-6e-05,-0.00014,-0.00016,2e-05,1e-05,4.0
47125.0,0.0,-6e-05,-5e-05,-6e-05,-0.00014,-0.00016,2e-05,1e-05,4.0
47126.0,0.0,-6e-05,-5e-05,-6e-05,-0.00014,-0.00016,2e-05,1e-05,4.0
47127.0,0.0,-6e-05,-5e-05,-6e-05,-0.00014,-0.00016,2e-05,1e-05,4.0
47128.0,0.0,-6e-05,-5e-05,-6e-05,-0.00014,-0.00016,2e-05,1e-05,4.0
47129.0,0.0,-6e-05,-5e-05,-6e-05,-0.00014,-0.00016,2e-05,1e-05,4.0
47130.0,0.0,-6e-05,-5e-05,-6e-05,-0.00014,-0.00016,2e-05,1e-05,4.0
47131.0,0.0,-6e-05,-5e-05,-6e-05,-0.00014,-0.00016,2e-05,1e-05,4.0
47132.0,0.0,-6e-05,-5e-05,-6e-05,-0.00014,-0.00016,2e-05,1e-05,4.0
47133.0,0.0,-6e-05,-5e-05,-6e-05,-0.00014,-0.00016,2e-05,1e-05,4.0
47134.0,0.0,-6e-05,-5e-05,-6e-05,-0.00014,-0.00016,2e-05,1e-05,4.0
47135.0,0.0,-6e-05,-5e-05,-6e-05,-0.00014,-0.00016,2e-05,1e-05,4.0
47137.0,0.0,-6e-05,-5e-05,-6e-05,-0.00014,-0.00016,2e-05,1e-05,4.0
47140.0,0.0,-6e-05,-5e-05,-6e-05,-0.00014,-0.00016,2e-05,1e-05,4.0
47141.0,0.0,-6e-05,-5e-05,-6e-05,-0.00014,-0.00016,2e-05,1e-05,4.0
47142.0,0.0,-6e-05,-5e-05,-6e-05,-0.00014,-0.00016,2e-05,1e-05,4.0
47143.0,0.0,-6e-05,-5e-05,-6e-05,-0.00014,-0.00016,2e-05,1e-05,4.0
47144.0,0.0,-6e-05,-5e-05,-6e-05,-0.00014,-0.00016,2e-05,1e-05,4.0
47145.0,0.0,-6e-05,-5e-05,-6e-05,-0.00014,-0.00016,2e-05,1e-05,4.0
47146.0,0.0,-6e-05,-5e-05,-6e-05,-0.00014,-0.00016,2e-05,1e-05,4.0
47147.0,0.0,-6e-05,-5e-05,-6e-05,-0.00014,-0.00016,2e-05,1e-05,4.0
47148.0,0.0,-6e-05,-5e-05,-6e-05,-0.00014,-0.00016,2e-05,1e-05,4.0
47149.0,0.0,-6e-05,-5e-05,-6e-05,-0.00014,-0.00016,2e-05,1e-05,4.0
47150.0,0.0,-6e-05,-5e-05,-6e-05,-0.00014,-0.00016,2e-05,1e-05,4.0
47151.0,0.0,-6e-05,-5e-05,-6e-05,-0.00014,-0.00016,2e-05,1e-05,4.0
47152.0,0.0,-6e-05,-5e-05,-6e-05,-0.00014,-0.00016,2e-05,1e-05,4.0
47153.0,0.0,-6e-05,-5e-05,-6e-05,-0.00014,-0.00016,2e-05,1e-05,4.0
47154.0,0.0,-6e-05,-5e-05,-6e-05,-0.00014,-0.00016,2e-05,1e-05,4.0
47155.0,0.0,-6e-05,-5e-05,-6e-05,-0.00014,-0.00016,2e-05,1e-05,4.0
47156.0,0.0,-6e-05,-5e-05,-6e-05,-0.00014,-0.00016,2e-05,1e-05,4.0
47157.0,0.0,-6e-05,-5e-05,-6e-05,-0.00014,-0.00016,2e-05,1e-05,4.0
47158.0,0.0,-6e-05,-5e-05,-6e-05,-0.00014,-0.00016,2e-05,1e-05,4.0
47159.0,0.0,-6e-05,-5e-05,-6e-05,-0.00014,-0.00016,2e-05,1e-05,4.0
47160.0,0.0,-6e-05,-5e-05,-6e-05,-0.00014,-0.00016,2e-05,1e-05,4.0
47161.0,0.0,-6e-05,-5e-05,-6e-05,-0.00014,-0.00016,2e-05,1e-05,4.0
47162.0,0.0,-6e-05,-5e-05,-6e-05,-0.00014,-0.00016,2e-05,1e-05,4.0
47163.0,0.0,-6e-05,-5e-05,-6e-05,-0.00014,-0.00016,2e-05,1e-05,4.0
47164.0,0.0,-6e-05,-5e-05,-6e-05,-0.00014,-0.00016,2e-05,1e-05,4.0
47165.0,0.0,-6e-05,-5e-05,-6e-05,-0.00014,-0.00016,2e-05,1e-05,4.0
47166.0,0.0,-6e-05,-5e-05,-6e-05,-0.00014,-0.00016,2e-05,1e-05,4.0
47167.0,0.0,-6e-05,-5e-05,-6e-05,-0.00014,-0.00016,2e-05,1e-05,4.0
47168.0,0.0,-6e-05,-5e-05,-6e-05,-0.00014,-0.00016,2e-05,1e-05,4.0
47169.0,0.0,-6e-05,-5e-05,-6e-05,-0.00014,-0.00016,2e-05,1e-05,4.0
47170.0,0.0,-6e-05,-5e-05,-6e-05,-0.00014,-0.00016,2e-05,1e-05,4.0
47171.0,0.0,-6e-05,-5e-05,-6e-05,-0.00014,-0.00016,2e-05,1e-05,4.0
47172.0,0.0,-6e-05,-5e-05,-6e-05,-0.00014,-0.00016,2e-05,1e-05,4.0
47173.0,0.0,-6e-05,-5e-05,-6e-05,-0.00014,-0.00016,2e-05,1e-05,4.0
47174.0,0.0,-6e-05,-5e-05,-6e-05,-0.00014,-0.00016,2e-05,1e-05,4.0
47175.0,0.0,-6e-05,-5e-05,-6e-05,-0.00014,-0.00016,2e-05,1e-05,4.0
47176.0,0.0,-6e-05,-5e-05,-6e-05,-0.00014,-0.00016,2e-05,1e-05,4.0
47177.0,0.0,-6e-05,-5e-05,-6e-05,-0.00014,-0.00016,2e-05,1e-05,4.0
47178.0,-3e-05,-4e-05,-0.00012,-0.0003,-0.00029,-4e-05,-7e-05,-7e-05,4.0
47179.0,1e-05,-2e-05,-1e-05,0.00011,0.00028,-2e-05,1e-05,3e-05,4.0
47180.0,1e-05,-2e-05,-1e-05,0.00011,0.00028,-2e-05,1e-05,3e-05,4.0
47181.0,1e-05,-2e-05,-1e-05,0.00011,0.00028,-2e-05,1e-05,3e-05,4.0
47182.0,1e-05,-2e-05,-1e-05,0.00011,0.00028,-2e-05,1e-05,3e-05,4.0
47183.0,1e-05,-2e-05,-1e-05,0.00011,0.00028,-2e-05,1e-05,3e-05,4.0
47184.0,1e-05,-2e-05,-1e-05,0.00011,0.00028,-2e-05,1e-05,3e-05,4.0
47185.0,1e-05,-2e-05,-1e-05,0.00011,0.00028,-2e-05,1e-05,3e-05,4.0
47186.0,1e-05,-2e-05,-1e-05,0.00011,0.00028,-2e-05,1e-05,3e-05,4.0
47189.0,1e-05,-2e-05,-1e-05,0.00011,0.00028,-2e-05,1e-05,3e-05,4.0
47190.0,1e-05,-2e-05,-1e-05,0.00011,0.00028,-2e-05,1e-05,3e-05,4.0
47191.0,1e-05,-2e-05,-1e-05,0.00011,0.00028,-2e-05,1e-05,3e-05,4.0
47192.0,1e-05,-2e-05,-1e-05,0.00011,0.00028,-2e-05,1e-05,3e-05,4.0
47193.0,1e-05,-2e-05,-1e-05,0.00011,0.00028,-2e-05,1e-05,3e-05,4.0
47194.0,1e-05,-2e-05,-1e-05,0.00011,0.00028,-2e-05,1e-05,3e-05,4.0
47195.0,1e-05,-2e-05,-1e-05,0.00011,0.00028,-2e-05,1e-05,3e-05,4.0
47196.0,1e-05,-2e-05,-1e-05,0.00011,0.00028,-2e-05,1e-05,3e-05,4.0
47197.0,1e-05,-2e-05,-1e-05,0.00011,0.00028,-2e-05,1e-05,3e-05,4.0
47198.0,1e-05,-2e-05,-1e-05,0.00011,0.00028,-2e-05,1e-05,3e-05,4.0
47199.0,1e-05,-2e-05,-1e-05,0.00011,0.00028,-2e-05,1e-05,3e-05,4.0
47200.0,-3e-05,-7e-05,-3e-05,0.0,0.00026,-5e-05,4e-05,3e-05,4.0
47201.0,-3e-05,-2e-05,-6e-05,-4e-05,-7e-05,-0.00013,-7e-05,-4e-05,4.0
47202.0,2e-05,3e-05,3e-05,9e-05,0.00033,0.00028,9e-05,2e-05,4.0
47203.0,2e-05,3e-05,3e-05,9e-05,0.00033,0.00028,9e-05,2e-05,4.0
47204.0,2e-05,3e-05,3e-05,9e-05,0.00033,0.00028,9e-05,2e-05,4.0
47205.0,2e-05,3e-05,3e-05,9e-05,0.00033,0.00028,9e-05,2e-05,4.0
47206.0,0.0,-6e-05,-4e-05,2e-05,0.00015,0.00033,9e-05,0.0,4.0
47207.0,-1e-05,-1e-05,-7e-05,3e-05,-7e-05,-3e-05,-1e-05,-3e-05,4.0
47208.0,-1e-05,-1e-05,-7e-05,3e-05,-7e-05,-3e-05,-1e-05,-3e-05,4.0
47209.0,-1e-05,-1e-05,-7e-05,3e-05,-7e-05,-3e-05,-1e-05,-3e-05,4.0
47210.0,-1e-05,-1e-05,-7e-05,3e-05,-7e-05,-3e-05,-1e-05,-3e-05,4.0
47211.0,-1e-05,-1e-05,-7e-05,3e-05,-7e-05,-3e-05,-1e-05,-3e-05,4.0
47212.0,-1e-05,-1e-05,-7e-05,3e-05,-7e-05,-3e-05,-1e-05,-3e-05,4.0
47213.0,-1e-05,-1e-05,-7e-05,3e-05,-7e-05,-3e-05,-1e-05,-3e-05,4.0
47214.0,-1e-05,-1e-05,-7e-05,3e-05,-7e-05,-3e-05,-1e-05,-3e-05,4.0
47215.0,-1e-05,-1e-05,-7e-05,3e-05,-7e-05,-3e-05,-1e-05,-3e-05,4.0
47216.0,-1e-05,-1e-05,-7e-05,3e-05,-7e-05,-3e-05,-1e-05,-3e-05,4.0
47217.0,-1e-05,-1e-05,-7e-05,3e-05,-7e-05,-3e-05,-1e-05,-3e-05,4.0
47218.0,-1e-05,-1e-05,-7e-05,3e-05,-7e-05,-3e-05,-1e-05,-3e-05,4.0
47219.0,-1e-05,-1e-05,-7e-05,3e-05,-7e-05,-3e-05,-1e-05,-3e-05,4.0
47220.0,-1e-05,-1e-05,3e-05,-2e-05,-0.00023,-0.00017,0.0,-8e-05,4.0
47221.0,-1e-05,-1e-05,3e-05,-2e-05,-0.00023,-0.00017,0.0,-8e-05,4.0
47222.0,-1e-05,-1e-05,3e-05,-2e-05,-0.00023,-0.00017,0.0,-8e-05,4.0
47223.0,-1e-05,-1e-05,3e-05,-2e-05,-0.00023,-0.00017,0.0,-8e-05,4.0
47224.0,-1e-05,-1e-05,3e-05,-2e-05,-0.00023,-0.00017,0.0,-8e-05,4.0
47225.0,-1e-05,-1e-05,3e-05,-2e-05,-0.00023,-0.00017,0.0,-8e-05,4.0
47226.0,-1e-05,-1e-05,3e-05,-2e-05,-0.00023,-0.00017,0.0,-8e-05,4.0
47227.0,-1e-05,-1e-05,3e-05,-2e-05,-0.00023,-0.00017,0.0,-8e-05,4.0
47228.0,5e-05,2e-05,-1e-05,0.0001,0.00039,0.00028,7e-05,7e-05,4.0
47229.0,5e-05,2e-05,-1e-05,0.0001,0.00039,0.00028,7e-05,7e-05,4.0
47230.0,5e-05,2e-05,-1e-05,0.0001,0.00039,0.00028,7e-05,7e-05,4.0
47231.0,5e-05,2e-05,-1e-05,0.0001,0.00039,0.00028,7e-05,7e-05,4.0
47232.0,5e-05,2e-05,-1e-05,0.0001,0.00039,0.00028,7e-05,7e-05,4.0
47233.0,5e-05,2e-05,-1e-05,0.0001,0.00039,0.00028,7e-05,7e-05,4.0
47234.0,5e-05,2e-05,-1e-05,0.0001,0.00039,0.00028,7e-05,7e-05,4.0
47235.0,5e-05,2e-05,-1e-05,0.0001,0.00039,0.00028,7e-05,7e-05,4.0
47236.0,5e-05,2e-05,-1e-05,0.0001,0.00039,0.00028,7e-05,7e-05,4.0
47239.0,5e-05,2e-05,-1e-05,0.0001,0.00039,0.00028,7e-05,7e-05,4.0
47240.0,5e-05,2e-05,-1e-05,0.0001,0.00039,0.00028,7e-05,7e-05,4.0
47241.0,5e-05,2e-05,-1e-05,0.0001,0.00039,0.00028,7e-05,7e-05,4.0
47242.0,5e-05,2e-05,-1e-05,0.0001,0.00039,0.00028,7e-05,7e-05,4.0
47243.0,5e-05,2e-05,-1e-05,0.0001,0.00039,0.00028,7e-05,7e-05,4.0
47244.0,5e-05,2e-05,-1e-05,0.0001,0.00039,0.00028,7e-05,7e-05,4.0
47245.0,5e-05,2e-05,-1e-05,0.0001,0.00039,0.00028,7e-05,7e-05,4.0
47246.0,5e-05,2e-05,-1e-05,0.0001,0.00039,0.00028,7e-05,7e-05,4.0
47247.0,5e-05,2e-05,-1e-05,0.0001,0.00039,0.00028,7e-05,7e-05,4.0
47248.0,5e-05,2e-05,-1e-05,0.0001,0.00039,0.00028,7e-05,7e-05,4.0
47249.0,5e-05,2e-05,-1e-05,0.0001,0.00039,0.00028,7e-05,7e-05,4.0
47250.0,0.0,-1e-05,3e-05,0.0001,0.00018,0.00012,6e-05,4e-05,4.0
47251.0,1e-05,3e-05,3e-05,0.00016,9e-05,5e-05,0.00012,9e-05,4.0
47252.0,1e-05,3e-05,3e-05,0.00016,9e-05,5e-05,0.00012,9e-05,4.0
47253.0,1e-05,3e-05,3e-05,0.00016,9e-05,5e-05,0.00012,9e-05,4.0
47254.0,1e-05,3e-05,3e-05,0.00016,9e-05,5e-05,0.00012,9e-05,4.0
47255.0,1e-05,3e-05,3e-05,0.00016,9e-05,5e-05,0.00012,9e-05,4.0
47256.0,1e-05,3e-05,3e-05,0.00016,9e-05,5e-05,0.00012,9e-05,4.0
47257.0,1e-05,3e-05,3e-05,0.00016,9e-05,5e-05,0.00012,9e-05,4.0
47258.0,1e-05,3e-05,3e-05,0.00016,9e-05,5e-05,0.00012,9e-05,4.0
47259.0,1e-05,3e-05,3e-05,0.00016,9e-05,5e-05,0.00012,9e-05,4.0
47260.0,1e-05,3e-05,3e-05,0.00016,9e-05,5e-05,0.00012,9e-05,4.0
47261.0,1e-05,3e-05,3e-05,0.00016,9e-05,5e-05,0.00012,9e-05,4.0
47262.0,1e-05,3e-05,3e-05,0.00016,9e-05,5e-05,0.00012,9e-05,4.0
47263.0,1e-05,3e-05,3e-05,0.00016,9e-05,5e-05,0.00012,9e-05,4.0
47264.0,1e-05,3e-05,3e-05,0.00016,9e-05,5e-05,0.00012,9e-05,4.0
47265.0,-4e-05,0.0,-5e-05,-8e-05,-0.00026,-0.00024,-3e-05,-3e-05,4.0
47266.0,0.0,2e-05,4e-05,-5e-05,-9e-05,3e-05,2e-05,-1e-05,4.0
47267.0,0.0,2e-05,4e-05,-5e-05,-9e-05,3e-05,2e-05,-1e-05,4.0
47268.0,0.0,2e-05,4e-05,-5e-05,-9e-05,3e-05,2e-05,-1e-05,4.0
47269.0,0.0,2e-05,4e-05,-5e-05,-9e-05,3e-05,2e-05,-1e-05,4.0
47270.0,0.0,2e-05,4e-05,-5e-05,-9e-05,3e-05,2e-05,-1e-05,4.0
47271.0,0.0,2e-05,4e-05,-5e-05,-9e-05,3e-05,2e-05,-1e-05,4.0
47272.0,0.0,2e-05,4e-05,-5e-05,-9e-05,3e-05,2e-05,-1e-05,4.0
47273.0,-3e-05,-1e-05,3e-05,0.00027,0.00031,-0.00025,-0.00016,-6e-05,4.0
47274.0,-3e-05,-1e-05,3e-05,0.00027,0.00031,-0.00025,-0.00016,-6e-05,4.0
47275.0,-3e-05,-1e-05,3e-05,0.00027,0.00031,-0.00025,-0.00016,-6e-05,4.0
47276.0,-3e-05,-1e-05,3e-05,0.00027,0.00031,-0.00025,-0.00016,-6e-05,4.0
47277.0,-3e-05,-1e-05,3e-05,0.00027,0.00031,-0.00025,-0.00016,-6e-05,4.0
47278.0,-3e-05,-1e-05,3e-05,0.00027,0.00031,-0.00025,-0.00016,-6e-05,4.0
47279.0,-3e-05,-1e-05,3e-05,0.00027,0.00031,-0.00025,-0.00016,-6e-05,4.0
47280.0,-3e-05,-1e-05,3e-05,0.00027,0.00031,-0.00025,-0.00016,-6e-05,4.0
47281.0,-3e-05,-1e-05,3e-05,0.00027,0.00031,-0.00025,-0.00016,-6e-05,4.0
47282.0,-3e-05,-1e-05,3e-05,0.00027,0.00031,-0.00025,-0.00016,-6e-05,4.0
47283.0,-3e-05,-1e-05,3e-05,0.00027,0.00031,-0.00025,-0.00016,-6e-05,4.0
47284.0,-3e-05,-1e-05,3e-05,0.00027,0.00031,-0.00025,-0.00016,-6e-05,4.0
47285.0,-3e-05,-1e-05,3e-05,0.00027,0.00031,-0.00025,-0.00016,-6e-05,4.0
47286.0,-3e-05,-1e-05,3e-05,0.00027,0.00031,-0.00025,-0.00016,-6e-05,4.0
47289.0,-3e-05,-1e-05,3e-05,0.00027,0.00031,-0.00025,-0.00016,-6e-05,4.0
47290.0,-3e-05,-1e-05,3e-05,0.00027,0.00031,-0.00025,-0.00016,-6e-05,4.0
47291.0,-3e-05,-1e-05,3e-05,0.00027,0.00031,-0.00025,-0.00016,-6e-05,4.0
47292.0,-3e-05,-1e-05,3e-05,0.00027,0.00031,-0.00025,-0.00016,-6e-05,4.0
47293.0,-3e-05,-1e-05,3e-05,0.00027,0.00031,-0.00025,-0.00016,-6e-05,4.0
47294.0,-3e-05,-1e-05,3e-05,0.00027,0.00031,-0.00025,-0.00016,-6e-05,4.0
47295.0,-3e-05,-1e-05,3e-05,0.00027,0.00031,-0.00025,-0.00016,-6e-05,4.0
47296.0,-3e-05,-1e-05,3e-05,0.00027,0.00031,-0.00025,-0.00016,-6e-05,4.0
47297.0,-5e-05,-8e-05,-0.00011,-0.00028,-0.00045,-0.00022,-8e-05,-5e-05,4.0
47298.0,-4e-05,-3e-05,-4e-05,-1e-05,2e-05,-0.00017,-0.00013,-6e-05,4.0
47299.0,-4e-05,-3e-05,-4e-05,-1e-05,2e-05,-0.00017,-0.00013,-6e-05,4.0
47300.0,-4e-05,-3e-05,-4e-05,-1e-05,2e-05,-0.00017,-0.00013,-6e-05,4.0
47301.0,-4e-05,-3e-05,-4e-05,-1e-05,2e-05,-0.00017,-0.00013,-6e-05,4.0
47302.0,-4e-05,-3e-05,-4e-05,-1e-05,2e-05,-0.00017,-0.00013,-6e-05,4.0
47303.0,-4e-05,-3e-05,-4e-05,-1e-05,2e-05,-0.00017,-0.00013,-6e-05,4.0
47304.0,-4e-05,-3e-05,-4e-05,-1e-05,2e-05,-0.00017,-0.00013,-6e-05,4.0
47305.0,-4e-05,-3e-05,-4e-05,-1e-05,2e-05,-0.00017,-0.00013,-6e-05,4.0
47306.0,-4e-05,-3e-05,-4e-05,-1e-05,2e-05,-0.00017,-0.00013,-6e-05,4.0
47307.0,-4e-05,-3e-05,-4e-05,-1e-05,2e-05,-0.00017,-0.00013,-6e-05,4.0
47308.0,-4e-05,-3e-05,-4e-05,-1e-05,2e-05,-0.00017,-0.00013,-6e-05,4.0
47309.0,-4e-05,-3e-05,-4e-05,-1e-05,2e-05,-0.00017,-0.00013,-6e-05,4.0
47310.0,-4e-05,-3e-05,-4e-05,-1e-05,2e-05,-0.00017,-0.00013,-6e-05,4.0
47311.0,-4e-05,-3e-05,-4e-05,-1e-05,2e-05,-0.00017,-0.00013,-6e-05,4.0
47312.0,-4e-05,-3e-05,-4e-05,-1e-05,2e-05,-0.00017,-0.00013,-6e-05,4.0
47313.0,-4e-05,-3e-05,-4e-05,-1e-05,2e-05,-0.00017,-0.00013,-6e-05,4.0
47314.0,-4e-05,-3e-05,-4e-05,-1e-05,2e-05,-0.00017,-0.00013,-6e-05,4.0
47315.0,-4e-05,-3e-05,-4e-05,-1e-05,2e-05,-0.00017,-0.00013,-6e-05,4.0
47316.0,-4e-05,-3e-05,-4e-05,-1e-05,2e-05,-0.00017,-0.00013,-6e-05,4.0
47317.0,-4e-05,-3e-05,-4e-05,-1e-05,2e-05,-0.00017,-0.00013,-6e-05,4.0
47318.0,6e-05,2e-05,6e-05,2e-05,4e-05,0.0,0.0001,0.00026,4.0
47319.0,-2e-05,-5e-05,-0.00013,-0.00024,-0.00044,-0.00026,-6e-05,-2e-05,4.0
47320.0,-2e-05,-5e-05,-0.00013,-0.00024,-0.00044,-0.00026,-6e-05,-2e-05,4.0
47321.0,-2e-05,-5e-05,-0.00013,-0.00024,-0.00044,-0.00026,-6e-05,-2e-05,4.0
47322.0,-2e-05,-5e-05,-0.00013,-0.00024,-0.00044,-0.00026,-6e-05,-2e-05,4.0
47323.0,-2e-05,-5e-05,-0.00013,-0.00024,-0.00044,-0.00026,-6e-05,-2e-05,4.0
47324.0,-8e-05,-5e-05,-1e-05,0.00015,0.00026,9e-05,-5e-05,-4e-05,4.0
47325.0,2e-05,3e-05,3e-05,-9e-05,-0.00014,4e-05,2e-05,2e-05,4.0
47326.0,2e-05,3e-05,3e-05,-9e-05,-0.00014,4e-05,2e-05,2e-05,4.0
47327.0,2e-05,3e-05,3e-05,-9e-05,-0.00014,4e-05,2e-05,2e-05,4.0
47328.0,2e-05,3e-05,3e-05,-9e-05,-0.00014,4e-05,2e-05,2e-05,4.0
47329.0,2e-05,3e-05,3e-05,-9e-05,-0.00014,4e-05,2e-05,2e-05,4.0
47330.0,2e-05,3e-05,3e-05,-9e-05,-0.00014,4e-05,2e-05,2e-05,4.0
47331.0,2e-05,3e-05,3e-05,-9e-05,-0.00014,4e-05,2e-05,2e-05,4.0
47332.0,2e-05,3e-05,3e-05,-9e-05,-0.00014,4e-05,2e-05,2e-05,4.0
47333.0,2e-05,3e-05,3e-05,-9e-05,-0.00014,4e-05,2e-05,2e-05,4.0
47334.0,2e-05,3e-05,3e-05,-9e-05,-0.00014,4e-05,2e-05,2e-05,4.0
47335.0,2e-05,3e-05,3e-05,-9e-05,-0.00014,4e-05,2e-05,2e-05,4.0
47336.0,2e-05,3e-05,3e-05,-9e-05,-0.00014,4e-05,2e-05,2e-05,4.0
47340.0,2e-05,3e-05,3e-05,-9e-05,-0.00014,4e-05,2e-05,2e-05,4.0
47341.0,2e-05,3e-05,3e-05,-9e-05,-0.00014,4e-05,2e-05,2e-05,4.0
47342.0,2e-05,3e-05,3e-05,-9e-05,-0.00014,4e-05,2e-05,2e-05,4.0
47343.0,2e-05,3e-05,3e-05,-9e-05,-0.00014,4e-05,2e-05,2e-05,4.0
47344.0,2e-05,3e-05,3e-05,-9e-05,-0.00014,4e-05,2e-05,2e-05,4.0
47345.0,2e-05,3e-05,3e-05,-9e-05,-0.00014,4e-05,2e-05,2e-05,4.0
47346.0,2e-05,3e-05,3e-05,-9e-05,-0.00014,4e-05,2e-05,2e-05,4.0
47347.0,2e-05,3e-05,3e-05,-9e-05,-0.00014,4e-05,2e-05,2e-05,4.0
47348.0,2e-05,3e-05,3e-05,-9e-05,-0.00014,4e-05,2e-05,2e-05,4.0
47349.0,1e-05,-4e-05,-9e-05,-0.00033,-0.00044,-8e-05,2e-05,2e-05,4.0
47350.0,-1e-05,1e-05,5e-05,0.00013,0.00011,0.00025,7e-05,-7e-05,4.0
47351.0,4e-05,0.0,4e-05,0.00017,0.00029,0.00012,5e-05,6e-05,4.0
47352.0,2e-05,3e-05,5e-05,3e-05,0.00021,0.00032,0.00012,4e-05,4.0
47353.0,2e-05,3e-05,5e-05,3e-05,0.00021,0.00032,0.00012,4e-05,4.0
47354.0,2e-05,3e-05,5e-05,3e-05,0.00021,0.00032,0.00012,4e-05,4.0
47355.0,2e-05,3e-05,5e-05,3e-05,0.00021,0.00032,0.00012,4e-05,4.0
47356.0,2e-05,3e-05,5e-05,3e-05,0.00021,0.00032,0.00012,4e-05,4.0
47357.0,2e-05,3e-05,5e-05,3e-05,0.00021,0.00032,0.00012,4e-05,4.0
47358.0,2e-05,3e-05,5e-05,3e-05,0.00021,0.00032,0.00012,4e-05,4.0
47359.0,2e-05,3e-05,5e-05,3e-05,0.00021,0.00032,0.00012,4e-05,4.0
47360.0,2e-05,3e-05,5e-05,3e-05,0.00021,0.00032,0.00012,4e-05,4.0
47361.0,2e-05,3e-05,5e-05,3e-05,0.00021,0.00032,0.00012,4e-05,4.0
47362.0,2e-05,3e-05,5e-05,3e-05,0.00021,0.00032,0.00012,4e-05,4.0
47363.0,2e-05,3e-05,5e-05,3e-05,0.00021,0.00032,0.00012,4e-05,4.0
47364.0,2e-05,3e-05,5e-05,3e-05,0.00021,0.00032,0.00012,4e-05,4.0
47365.0,2e-05,3e-05,5e-05,3e-05,0.00021,0.00032,0.00012,4e-05,4.0
47366.0,2e-05,3e-05,5e-05,3e-05,0.00021,0.00032,0.00012,4e-05,4.0
47367.0,2e-05,3e-05,5e-05,3e-05,0.00021,0.00032,0.00012,4e-05,4.0
47368.0,2e-05,3e-05,5e-05,3e-05,0.00021,0.00032,0.00012,4e-05,4.0
47369.0,2e-05,3e-05,5e-05,3e-05,0.00021,0.00032,0.00012,4e-05,4.0
47370.0,2e-05,3e-05,5e-05,3e-05,0.00021,0.00032,0.00012,4e-05,4.0
47371.0,1e-05,5e-05,0.00011,0.00037,0.00038,0.00029,0.0,-6e-05,4.0
47372.0,1e-05,5e-05,0.00011,0.00037,0.00038,0.00029,0.0,-6e-05,4.0
47373.0,1e-05,5e-05,0.00011,0.00037,0.00038,0.00029,0.0,-6e-05,4.0
47374.0,1e-05,5e-05,0.00011,0.00037,0.00038,0.00029,0.0,-6e-05,4.0
47375.0,1e-05,5e-05,0.00011,0.00037,0.00038,0.00029,0.0,-6e-05,4.0
47376.0,1e-05,5e-05,0.00011,0.00037,0.00038,0.00029,0.0,-6e-05,4.0
47377.0,1e-05,5e-05,0.00011,0.00037,0.00038,0.00029,0.0,-6e-05,4.0
47378.0,1e-05,5e-05,0.00011,0.00037,0.00038,0.00029,0.0,-6e-05,4.0
47379.0,1e-05,5e-05,0.00011,0.00037,0.00038,0.00029,0.0,-6e-05,4.0
47380.0,1e-05,5e-05,0.00011,0.00037,0.00038,0.00029,0.0,-6e-05,4.0
47381.0,1e-05,5e-05,0.00011,0.00037,0.00038,0.00029,0.0,-6e-05,4.0
47382.0,1e-05,5e-05,0.00011,0.00037,0.00038,0.00029,0.0,-6e-05,4.0
47383.0,1e-05,5e-05,0.00011,0.00037,0.00038,0.00029,0.0,-6e-05,4.0
47384.0,1e-05,5e-05,0.00011,0.00037,0.00038,0.00029,0.0,-6e-05,4.0
47385.0,1e-05,5e-05,0.00011,0.00037,0.00038,0.00029,0.0,-6e-05,4.0
47386.0,1e-05,5e-05,0.00011,0.00037,0.00038,0.00029,0.0,-6e-05,4.0
47389.0,1e-05,5e-05,0.00011,0.00037,0.00038,0.00029,0.0,-6e-05,4.0
47390.0,1e-05,5e-05,0.00011,0.00037,0.00038,0.00029,0.0,-6e-05,4.0
47391.0,1e-05,5e-05,0.00011,0.00037,0.00038,0.00029,0.0,-6e-05,4.0
47392.0,1e-05,5e-05,0.00011,0.00037,0.00038,0.00029,0.0,-6e-05,4.0
47393.0,1e-05,5e-05,0.00011,0.00037,0.00038,0.00029,0.0,-6e-05,4.0
47394.0,-9e-05,-0.00012,-0.00022,-0.00036,-0.00038,-0.00029,-0.00015,-8e-05,4.0
47395.0,2e-05,6e-05,0.0001,6e-05,5e-05,1e-05,6e-05,3e-05,4.0
47396.0,2e-05,6e-05,0.0001,6e-05,5e-05,1e-05,6e-05,3e-05,4.0
47397.0,2e-05,6e-05,0.0001,6e-05,5e-05,1e-05,6e-05,3e-05,4.0
47398.0,2e-05,6e-05,0.0001,6e-05,5e-05,1e-05,6e-05,3e-05,4.0
47399.0,2e-05,6e-05,0.0001,6e-05,5e-05,1e-05,6e-05,3e-05,4.0
47400.0,2e-05,6e-05,0.0001,6e-05,5e-05,1e-05,6e-05,3e-05,4.0
47401.0,2e-05,6e-05,0.0001,6e-05,5e-05,1e-05,6e-05,3e-05,4.0
47402.0,2e-05,6e-05,0.0001,6e-05,5e-05,1e-05,6e-05,3e-05,4.0
47403.0,2e-05,6e-05,0.0001,6e-05,5e-05,1e-05,6e-05,3e-05,4.0
47404.0,2e-05,6e-05,0.0001,6e-05,5e-05,1e-05,6e-05,3e-05,4.0
47405.0,2e-05,6e-05,0.0001,6e-05,5e-05,1e-05,6e-05,3e-05,4.0
47406.0,2e-05,6e-05,0.0001,6e-05,5e-05,1e-05,6e-05,3e-05,4.0
47407.0,2e-05,6e-05,0.0001,6e-05,5e-05,1e-05,6e-05,3e-05,4.0
47408.0,1e-05,-5e-05,-0.00011,-0.00015,0.0,9e-05,6e-05,4e-05,4.0
47409.0,0.0,-3e-05,-4e-05,-3e-05,-4e-05,-0.00011,-5e-05,-3e-05,4.0
47410.0,0.0,-3e-05,-4e-05,-3e-05,-4e-05,-0.00011,-5e-05,-3e-05,4.0
47411.0,0.0,-3e-05,-4e-05,-3e-05,-4e-05,-0.00011,-5e-05,-3e-05,4.0
47412.0,0.0,-3e-05,-4e-05,-3e-05,-4e-05,-0.00011,-5e-05,-3e-05,4.0
47413.0,0.0,-3e-05,-4e-05,-3e-05,-4e-05,-0.00011,-5e-05,-3e-05,4.0
47414.0,0.0,-3e-05,-4e-05,-3e-05,-4e-05,-0.00011,-5e-05,-3e-05,4.0
47415.0,0.0,-3e-05,-4e-05,-3e-05,-4e-05,-0.00011,-5e-05,-3e-05,4.0
47416.0,0.0,-3e-05,-4e-05,-3e-05,-4e-05,-0.00011,-5e-05,-3e-05,4.0
47417.0,0.0,-3e-05,-4e-05,-3e-05,-4e-05,-0.00011,-5e-05,-3e-05,4.0
47418.0,0.0,-3e-05,-4e-05,-3e-05,-4e-05,-0.00011,-5e-05,-3e-05,4.0
47419.0,0.0,-3e-05,-4e-05,-3e-05,-4e-05,-0.00011,-5e-05,-3e-05,4.0
47420.0,0.0,-3e-05,-4e-05,-3e-05,-4e-05,-0.00011,-5e-05,-3e-05,4.0
47421.0,0.0,-3e-05,-4e-05,-3e-05,-4e-05,-0.00011,-5e-05,-3e-05,4.0
47422.0,0.0,-3e-05,-4e-05,-3e-05,-4e-05,-0.00011,-5e-05,-3e-05,4.0
47423.0,0.0,-3e-05,-4e-05,-3e-05,-4e-05,-0.00011,-5e-05,-3e-05,4.0
47424.0,0.0,-3e-05,-4e-05,-3e-05,-4e-05,-0.00011,-5e-05,-3e-05,4.0
47425.0,0.0,-3e-05,-4e-05,-3e-05,-4e-05,-0.00011,-5e-05,-3e-05,4.0
47426.0,0.0,-3e-05,-4e-05,-3e-05,-4e-05,-0.00011,-5e-05,-3e-05,4.0
47427.0,0.0,-3e-05,-4e-05,-3e-05,-4e-05,-0.00011,-5e-05,-3e-05,4.0
47428.0,0.0,-3e-05,-4e-05,-3e-05,-4e-05,-0.00011,-5e-05,-3e-05,4.0
47429.0,0.0,-3e-05,-4e-05,-3e-05,-4e-05,-0.00011,-5e-05,-3e-05,4.0
47430.0,-6e-05,-0.00011,-8e-05,1e-05,0.00017,7e-05,-1e-05,0.0,4.0
47431.0,-6e-05,-4e-05,-9e-05,1e-05,2e-05,-0.00031,-0.00018,-0.00012,4.0
47432.0,-6e-05,-4e-05,-9e-05,1e-05,2e-05,-0.00031,-0.00018,-0.00012,4.0
47433.0,-6e-05,-4e-05,-9e-05,1e-05,2e-05,-0.00031,-0.00018,-0.00012,4.0
47434.0,-6e-05,-4e-05,-9e-05,1e-05,2e-05,-0.00031,-0.00018,-0.00012,4.0
47435.0,-6e-05,-4e-05,-9e-05,1e-05,2e-05,-0.00031,-0.00018,-0.00012,4.0
47436.0,-6e-05,-4e-05,-9e-05,1e-05,2e-05,-0.00031,-0.00018,-0.00012,4.0
47439.0,-6e-05,-4e-05,-9e-05,1e-05,2e-05,-0.00031,-0.00018,-0.00012,4.0
47440.0,-6e-05,-4e-05,-9e-05,1e-05,2e-05,-0.00031,-0.00018,-0.00012,4.0
47441.0,-6e-05,-4e-05,-9e-05,1e-05,2e-05,-0.00031,-0.00018,-0.00012,4.0
47442.0,-6e-05,-4e-05,-9e-05,1e-05,2e-05,-0.00031,-0.00018,-0.00012,4.0
47443.0,-6e-05,-4e-05,-9e-05,1e-05,2e-05,-0.00031,-0.00018,-0.00012,4.0
47444.0,-6e-05,-4e-05,-9e-05,1e-05,2e-05,-0.00031,-0.00018,-0.00012,4.0
47445.0,-6e-05,-4e-05,-9e-05,1e-05,2e-05,-0.00031,-0.00018,-0.00012,4.0
47446.0,-6e-05,-4e-05,-9e-05,1e-05,2e-05,-0.00031,-0.00018,-0.00012,4.0
47447.0,-6e-05,-4e-05,-9e-05,1e-05,2e-05,-0.00031,-0.00018,-0.00012,4.0
47448.0,-6e-05,-4e-05,-9e-05,1e-05,2e-05,-0.00031,-0.00018,-0.00012,4.0
47449.0,-6e-05,-4e-05,-9e-05,1e-05,2e-05,-0.00031,-0.00018,-0.00012,4.0
47450.0,-6e-05,-4e-05,-9e-05,1e-05,2e-05,-0.00031,-0.00018,-0.00012,4.0
47451.0,-6e-05,-4e-05,-9e-05,1e-05,2e-05,-0.00031,-0.00018,-0.00012,4.0
47452.0,-6e-05,-4e-05,-9e-05,1e-05,2e-05,-0.00031,-0.00018,-0.00012,4.0
47453.0,-6e-05,-5e-05,-0.00012,-0.00024,-0.00056,-0.00033,-0.00016,-0.00011,4.0
47454.0,-9e-05,-7e-05,-6e-05,-7e-05,-5e-05,-8e-05,-0.00017,-0.00013,4.0
47455.0,-9e-05,-7e-05,-6e-05,-7e-05,-5e-05,-8e-05,-0.00017,-0.00013,4.0
47456.0,-9e-05,-7e-05,-6e-05,-7e-05,-5e-05,-8e-05,-0.00017,-0.00013,4.0
47457.0,-9e-05,-7e-05,-6e-05,-7e-05,-5e-05,-8e-05,-0.00017,-0.00013,4.0
47458.0,-9e-05,-7e-05,-6e-05,-7e-05,-5e-05,-8e-05,-0.00017,-0.00013,4.0
47459.0,-9e-05,-7e-05,-6e-05,-7e-05,-5e-05,-8e-05,-0.00017,-0.00013,4.0
47460.0,-9e-05,-7e-05,-6e-05,-7e-05,-5e-05,-8e-05,-0.00017,-0.00013,4.0
47461.0,-9e-05,-7e-05,-6e-05,-7e-05,-5e-05,-8e-05,-0.00017,-0.00013,4.0
47462.0,-9e-05,-7e-05,-6e-05,-7e-05,-5e-05,-8e-05,-0.00017,-0.00013,4.0
47463.0,-9e-05,-7e-05,-6e-05,-7e-05,-5e-05,-8e-05,-0.00017,-0.00013,4.0
47464.0,-9e-05,-7e-05,-6e-05,-7e-05,-5e-05,-8e-05,-0.00017,-0.00013,4.0
47465.0,-9e-05,-7e-05,-6e-05,-7e-05,-5e-05,-8e-05,-0.00017,-0.00013,4.0
47466.0,-9e-05,-7e-05,-6e-05,-7e-05,-5e-05,-8e-05,-0.00017,-0.00013,4.0
47467.0,-9e-05,-7e-05,-6e-05,-7e-05,-5e-05,-8e-05,-0.00017,-0.00013,4.0
47468.0,1e-05,-4e-05,-3e-05,-5e-05,-0.0001,4e-05,0.0001,0.00014,4.0
47469.0,1e-05,-4e-05,-3e-05,-5e-05,-0.0001,4e-05,0.0001,0.00014,4.0
47470.0,1e-05,-4e-05,-3e-05,-5e-05,-0.0001,4e-05,0.0001,0.00014,4.0
47471.0,1e-05,-4e-05,-3e-05,-5e-05,-0.0001,4e-05,0.0001,0.00014,4.0
47472.0,1e-05,-4e-05,-3e-05,-5e-05,-0.0001,4e-05,0.0001,0.00014,4.0
47473.0,1e-05,-4e-05,-3e-05,-5e-05,-0.0001,4e-05,0.0001,0.00014,4.0
47474.0,1e-05,-4e-05,-3e-05,-5e-05,-0.0001,4e-05,0.0001,0.00014,4.0
47475.0,1e-05,-4e-05,-3e-05,-5e-05,-0.0001,4e-05,0.0001,0.00014,4.0
47476.0,1e-05,-4e-05,-3e-05,-5e-05,-0.0001,4e-05,0.0001,0.00014,4.0
47477.0,1e-05,-4e-05,-3e-05,-5e-05,-0.0001,4e-05,0.0001,0.00014,4.0
47478.0,1e-05,-4e-05,-3e-05,-5e-05,-0.0001,4e-05,0.0001,0.00014,4.0
47479.0,1e-05,-4e-05,-3e-05,-5e-05,-0.0001,4e-05,0.0001,0.00014,4.0
47480.0,1e-05,-4e-05,-3e-05,-5e-05,-0.0001,4e-05,0.0001,0.00014,4.0
47481.0,1e-05,-4e-05,-3e-05,-5e-05,-0.0001,4e-05,0.0001,0.00014,4.0
47482.0,1e-05,-4e-05,-3e-05,-5e-05,-0.0001,4e-05,0.0001,0.00014,4.0
47483.0,1e-05,-4e-05,-3e-05,-5e-05,-0.0001,4e-05,0.0001,0.00014,4.0
47484.0,1e-05,-4e-05,-3e-05,-5e-05,-0.0001,4e-05,0.0001,0.00014,4.0
47485.0,1e-05,-4e-05,-3e-05,-5e-05,-0.0001,4e-05,0.0001,0.00014,4.0
47486.0,1e-05,-4e-05,-3e-05,-5e-05,-0.0001,4e-05,0.0001,0.00014,4.0
47489.0,1e-05,-4e-05,-3e-05,-5e-05,-0.0001,4e-05,0.0001,0.00014,4.0
47490.0,1e-05,-4e-05,-3e-05,-5e-05,-0.0001,4e-05,0.0001,0.00014,4.0
47491.0,1e-05,-4e-05,-3e-05,-5e-05,-0.0001,4e-05,0.0001,0.00014,4.0
47492.0,1e-05,-4e-05,-3e-05,-5e-05,-0.0001,4e-05,0.0001,0.00014,4.0
47493.0,1e-05,-4e-05,-3e-05,-5e-05,-0.0001,4e-05,0.0001,0.00014,4.0
47494.0,1e-05,-4e-05,-3e-05,-5e-05,-0.0001,4e-05,0.0001,0.00014,4.0
47495.0,1e-05,-4e-05,-3e-05,-5e-05,-0.0001,4e-05,0.0001,0.00014,4.0
47496.0,1e-05,-4e-05,-3e-05,-5e-05,-0.0001,4e-05,0.0001,0.00014,4.0
47497.0,1e-05,-4e-05,-3e-05,-5e-05,-0.0001,4e-05,0.0001,0.00014,4.0
47498.0,2e-05,7e-05,5e-05,-2e-05,-1e-05,1e-05,0.0,-4e-05,4.0
47499.0,2e-05,2e-05,2e-05,3e-05,4e-05,5e-05,2e-05,2e-05,4.0
47500.0,2e-05,2e-05,2e-05,3e-05,4e-05,5e-05,2e-05,2e-05,4.0
47501.0,2e-05,2e-05,2e-05,3e-05,4e-05,5e-05,2e-05,2e-05,4.0
47502.0,2e-05,2e-05,2e-05,3e-05,4e-05,5e-05,2e-05,2e-05,4.0
47503.0,2e-05,2e-05,2e-05,3e-05,4e-05,5e-05,2e-05,2e-05,4.0
47504.0,2e-05,2e-05,2e-05,3e-05,4e-05,5e-05,2e-05,2e-05,4.0
47505.0,2e-05,2e-05,2e-05,3e-05,4e-05,5e-05,2e-05,2e-05,4.0
47506.0,2e-05,2e-05,2e-05,3e-05,4e-05,5e-05,2e-05,2e-05,4.0
47507.0,2e-05,2e-05,2e-05,3e-05,4e-05,5e-05,2e-05,2e-05,4.0
47508.0,2e-05,2e-05,2e-05,3e-05,4e-05,5e-05,2e-05,2e-05,4.0
47509.0,2e-05,2e-05,2e-05,3e-05,4e-05,5e-05,2e-05,2e-05,4.0
47510.0,2e-05,2e-05,2e-05,3e-05,4e-05,5e-05,2e-05,2e-05,4.0
47511.0,2e-05,2e-05,2e-05,3e-05,4e-05,5e-05,2e-05,2e-05,4.0
47512.0,2e-05,2e-05,2e-05,3e-05,4e-05,5e-05,2e-05,2e-05,4.0
47513.0,2e-05,2e-05,2e-05,3e-05,4e-05,5e-05,2e-05,2e-05,4.0
47514.0,2e-05,2e-05,2e-05,3e-05,4e-05,5e-05,2e-05,2e-05,4.0
47515.0,2e-05,2e-05,2e-05,3e-05,4e-05,5e-05,2e-05,2e-05,4.0
47516.0,2e-05,2e-05,2e-05,3e-05,4e-05,5e-05,2e-05,2e-05,4.0
47517.0,2e-05,2e-05,2e-05,3e-05,4e-05,5e-05,2e-05,2e-05,4.0
47518.0,2e-05,2e-05,2e-05,3e-05,4e-05,5e-05,2e-05,2e-05,4.0
47519.0,2e-05,2e-05,2e-05,3e-05,4e-05,5e-05,2e-05,2e-05,4.0
47520.0,2e-05,2e-05,2e-05,3e-05,4e-05,5e-05,2e-05,2e-05,4.0
47521.0,6e-05,5e-05,8e-05,-7e-05,-0.00036,-9e-05,5e-05,2e-05,4.0
47522.0,5e-05,7e-05,2e-05,-0.0001,-0.0003,0.0001,7e-05,4e-05,4.0
47523.0,5e-05,7e-05,2e-05,-0.0001,-0.0003,0.0001,7e-05,4e-05,4.0
47524.0,5e-05,7e-05,2e-05,-0.0001,-0.0003,0.0001,7e-05,4e-05,4.0
47525.0,5e-05,7e-05,2e-05,-0.0001,-0.0003,0.0001,7e-05,4e-05,4.0
47526.0,5e-05,7e-05,2e-05,-0.0001,-0.0003,0.0001,7e-05,4e-05,4.0
47527.0,5e-05,7e-05,2e-05,-0.0001,-0.0003,0.0001,7e-05,4e-05,4.0
47528.0,4e-05,7e-05,2e-05,0.0,-2e-05,-6e-05,0.0,1e-05,4.0
47529.0,-7e-05,-0.00016,-0.00012,-4e-05,-4e-05,-0.00019,-0.0001,-7e-05,4.0
47530.0,-7e-05,-0.00016,-0.00012,-4e-05,-4e-05,-0.00019,-0.0001,-7e-05,4.0
47531.0,-7e-05,-0.00016,-0.00012,-4e-05,-4e-05,-0.00019,-0.0001,-7e-05,4.0
47532.0,-7e-05,-0.00016,-0.00012,-4e-05,-4e-05,-0.00019,-0.0001,-7e-05,4.0
47533.0,-7e-05,-0.00016,-0.00012,-4e-05,-4e-05,-0.00019,-0.0001,-7e-05,4.0
47534.0,-7e-05,-0.00016,-0.00012,-4e-05,-4e-05,-0.00019,-0.0001,-7e-05,4.0
47535.0,-7e-05,-0.00016,-0.00012,-4e-05,-4e-05,-0.00019,-0.0001,-7e-05,4.0
47537.0,-7e-05,-0.00016,-0.00012,-4e-05,-4e-05,-0.00019,-0.0001,-7e-05,4.0
47540.0,-7e-05,-0.00016,-0.00012,-4e-05,-4e-05,-0.00019,-0.0001,-7e-05,4.0
47541.0,-7e-05,-0.00016,-0.00012,-4e-05,-4e-05,-0.00019,-0.0001,-7e-05,4.0
47542.0,-7e-05,-0.00016,-0.00012,-4e-05,-4e-05,-0.00019,-0.0001,-7e-05,4.0
47543.0,-7e-05,-0.00016,-0.00012,-4e-05,-4e-05,-0.00019,-0.0001,-7e-05,4.0
47544.0,-7e-05,-0.00016,-0.00012,-4e-05,-4e-05,-0.00019,-0.0001,-7e-05,4.0
47545.0,-7e-05,-0.00016,-0.00012,-4e-05,-4e-05,-0.00019,-0.0001,-7e-05,4.0
47546.0,-7e-05,-0.00016,-0.00012,-4e-05,-4e-05,-0.00019,-0.0001,-7e-05,4.0
47547.0,-7e-05,-0.00016,-0.00012,-4e-05,-4e-05,-0.00019,-0.0001,-7e-05,4.0
47548.0,-7e-05,-0.00016,-0.00012,-4e-05,-4e-05,-0.00019,-0.0001,-7e-05,4.0
47549.0,-7e-05,-0.00016,-0.00012,-4e-05,-4e-05,-0.00019,-0.0001,-7e-05,4.0
47550.0,-7e-05,-0.00016,-0.00012,-4e-05,-4e-05,-0.00019,-0.0001,-7e-05,4.0
47551.0,-1e-05,-6e-05,-3e-05,-0.00014,-0.00028,-0.0001,-2e-05,-1e-05,4.0
47552.0,-4e-05,-2e-05,2e-05,5e-05,3e-05,-0.0001,-6e-05,-3e-05,4.0
47553.0,-4e-05,-2e-05,2e-05,5e-05,3e-05,-0.0001,-6e-05,-3e-05,4.0
47554.0,-4e-05,-2e-05,2e-05,5e-05,3e-05,-0.0001,-6e-05,-3e-05,4.0
47555.0,-4e-05,-2e-05,2e-05,5e-05,3e-05,-0.0001,-6e-05,-3e-05,4.0
47556.0,-4e-05,-2e-05,2e-05,5e-05,3e-05,-0.0001,-6e-05,-3e-05,4.0
47557.0,-4e-05,-2e-05,2e-05,5e-05,3e-05,-0.0001,-6e-05,-3e-05,4.0
47558.0,-4e-05,-2e-05,2e-05,5e-05,3e-05,-0.0001,-6e-05,-3e-05,4.0
47559.0,-4e-05,-2e-05,2e-05,5e-05,3e-05,-0.0001,-6e-05,-3e-05,4.0
47560.0,-4e-05,-2e-05,2e-05,5e-05,3e-05,-0.0001,-6e-05,-3e-05,4.0
47561.0,-4e-05,-2e-05,2e-05,5e-05,3e-05,-0.0001,-6e-05,-3e-05,4.0
47562.0,-4e-05,-2e-05,2e-05,5e-05,3e-05,-0.0001,-6e-05,-3e-05,4.0
47563.0,-4e-05,-2e-05,2e-05,5e-05,3e-05,-0.0001,-6e-05,-3e-05,4.0
47564.0,-4e-05,-2e-05,2e-05,5e-05,3e-05,-0.0001,-6e-05,-3e-05,4.0
47565.0,-4e-05,-2e-05,2e-05,5e-05,3e-05,-0.0001,-6e-05,-3e-05,4.0
47566.0,-4e-05,-2e-05,2e-05,5e-05,3e-05,-0.0001,-6e-05,-3e-05,4.0
47567.0,-4e-05,-2e-05,2e-05,5e-05,3e-05,-0.0001,-6e-05,-3e-05,4.0
47568.0,-4e-05,-2e-05,2e-05,5e-05,3e-05,-0.0001,-6e-05,-3e-05,4.0
47569.0,-4e-05,-2e-05,2e-05,5e-05,3e-05,-0.0001,-6e-05,-3e-05,4.0
47570.0,-4e-05,-2e-05,2e-05,5e-05,3e-05,-0.0001,-6e-05,-3e-05,4.0
47571.0,-4e-05,-2e-05,2e-05,5e-05,3e-05,-0.0001,-6e-05,-3e-05,4.0
47572.0,-4e-05,-2e-05,2e-05,5e-05,3e-05,-0.0001,-6e-05,-3e-05,4.0
47573.0,-4e-05,-2e-05,2e-05,5e-05,3e-05,-0.0001,-6e-05,-3e-05,4.0
47574.0,2e-05,3e-05,3e-05,0.00017,0.00045,0.0002,0.0,0.0,4.0
47575.0,-1e-05,-2e-05,-2e-05,-3e-05,-4e-05,-2e-05,-1e-05,4e-05,4.0
47576.0,-5e-05,0.0,-1e-05,8e-05,0.00017,0.00017,-8e-05,-0.00012,4.0
47577.0,-5e-05,0.0,-1e-05,8e-05,0.00017,0.00017,-8e-05,-0.00012,4.0
47578.0,-5e-05,0.0,-1e-05,8e-05,0.00017,0.00017,-8e-05,-0.00012,4.0
47579.0,-5e-05,0.0,-1e-05,8e-05,0.00017,0.00017,-8e-05,-0.00012,4.0
47580.0,-5e-05,0.0,-1e-05,8e-05,0.00017,0.00017,-8e-05,-0.00012,4.0
47581.0,-5e-05,0.0,-1e-05,8e-05,0.00017,0.00017,-8e-05,-0.00012,4.0
47582.0,-5e-05,0.0,-1e-05,8e-05,0.00017,0.00017,-8e-05,-0.00012,4.0
47583.0,-5e-05,0.0,-1e-05,8e-05,0.00017,0.00017,-8e-05,-0.00012,4.0
47584.0,-5e-05,0.0,-1e-05,8e-05,0.00017,0.00017,-8e-05,-0.00012,4.0
47585.0,-5e-05,0.0,-1e-05,8e-05,0.00017,0.00017,-8e-05,-0.00012,4.0
47586.0,-5e-05,0.0,-1e-05,8e-05,0.00017,0.00017,-8e-05,-0.00012,4.0
47589.0,-5e-05,0.0,-1e-05,8e-05,0.00017,0.00017,-8e-05,-0.00012,4.0
47590.0,-5e-05,0.0,-1e-05,8e-05,0.00017,0.00017,-8e-05,-0.00012,4.0
47591.0,-5e-05,0.0,-1e-05,8e-05,0.00017,0.00017,-8e-05,-0.00012,4.0
47592.0,-5e-05,0.0,-1e-05,8e-05,0.00017,0.00017,-8e-05,-0.00012,4.0
47593.0,-5e-05,0.0,-1e-05,8e-05,0.00017,0.00017,-8e-05,-0.00012,4.0
47594.0,-5e-05,0.0,-1e-05,8e-05,0.00017,0.00017,-8e-05,-0.00012,4.0
47595.0,-5e-05,0.0,-1e-05,8e-05,0.00017,0.00017,-8e-05,-0.00012,4.0
47596.0,-2e-05,-3e-05,-2e-05,-0.00012,-0.00036,-4e-05,0.0,-1e-05,4.0
47597.0,5e-05,2e-05,2e-05,2e-05,0.00034,0.00037,0.00017,0.0001,4.0
47598.0,5e-05,2e-05,2e-05,2e-05,0.00034,0.00037,0.00017,0.0001,4.0
47599.0,5e-05,2e-05,2e-05,2e-05,0.00034,0.00037,0.00017,0.0001,4.0
47600.0,5e-05,2e-05,2e-05,2e-05,0.00034,0.00037,0.00017,0.0001,4.0
47601.0,5e-05,2e-05,2e-05,2e-05,0.00034,0.00037,0.00017,0.0001,4.0
47602.0,5e-05,2e-05,2e-05,2e-05,0.00034,0.00037,0.00017,0.0001,4.0
47603.0,5e-05,2e-05,2e-05,2e-05,0.00034,0.00037,0.00017,0.0001,4.0
47604.0,5e-05,2e-05,2e-05,2e-05,0.00034,0.00037,0.00017,0.0001,4.0
47605.0,5e-05,2e-05,2e-05,2e-05,0.00034,0.00037,0.00017,0.0001,4.0
47606.0,5e-05,2e-05,2e-05,2e-05,0.00034,0.00037,0.00017,0.0001,4.0
47607.0,5e-05,2e-05,2e-05,2e-05,0.00034,0.00037,0.00017,0.0001,4.0
47608.0,5e-05,2e-05,2e-05,2e-05,0.00034,0.00037,0.00017,0.0001,4.0
47609.0,5e-05,2e-05,2e-05,2e-05,0.00034,0.00037,0.00017,0.0001,4.0
47610.0,5e-05,2e-05,2e-05,2e-05,0.00034,0.00037,0.00017,0.0001,4.0
47611.0,5e-05,2e-05,2e-05,2e-05,0.00034,0.00037,0.00017,0.0001,4.0
47612.0,5e-05,2e-05,2e-05,2e-05,0.00034,0.00037,0.00017,0.0001,4.0
47613.0,5e-05,2e-05,2e-05,2e-05,0.00034,0.00037,0.00017,0.0001,4.0
47614.0,5e-05,2e-05,2e-05,2e-05,0.00034,0.00037,0.00017,0.0001,4.0
47615.0,5e-05,2e-05,2e-05,2e-05,0.00034,0.00037,0.00017,0.0001,4.0
47616.0,5e-05,2e-05,2e-05,2e-05,0.00034,0.00037,0.00017,0.0001,4.0
47617.0,5e-05,2e-05,2e-05,2e-05,0.00034,0.00037,0.00017,0.0001,4.0
47618.0,5e-05,2e-05,2e-05,2e-05,0.00034,0.00037,0.00017,0.0001,4.0
47619.0,-4e-05,-8e-05,-0.00012,-0.00011,-0.00024,-0.00023,-0.00011,-7e-05,4.0
47620.0,-4e-05,1e-05,5e-05,0.0,-0.00013,-3e-05,-2e-05,-0.00016,4.0
47621.0,-4e-05,1e-05,5e-05,0.0,-0.00013,-3e-05,-2e-05,-0.00016,4.0
47622.0,-4e-05,1e-05,5e-05,0.0,-0.00013,-3e-05,-2e-05,-0.00016,4.0
47623.0,-4e-05,1e-05,5e-05,0.0,-0.00013,-3e-05,-2e-05,-0.00016,4.0
47624.0,-4e-05,1e-05,5e-05,0.0,-0.00013,-3e-05,-2e-05,-0.00016,4.0
47625.0,-4e-05,1e-05,5e-05,0.0,-0.00013,-3e-05,-2e-05,-0.00016,4.0
47626.0,-4e-05,1e-05,5e-05,0.0,-0.00013,-3e-05,-2e-05,-0.00016,4.0
47627.0,-4e-05,1e-05,5e-05,0.0,-0.00013,-3e-05,-2e-05,-0.00016,4.0
47628.0,-4e-05,1e-05,5e-05,0.0,-0.00013,-3e-05,-2e-05,-0.00016,4.0
47629.0,-4e-05,1e-05,5e-05,0.0,-0.00013,-3e-05,-2e-05,-0.00016,4.0
47630.0,-4e-05,1e-05,5e-05,0.0,-0.00013,-3e-05,-2e-05,-0.00016,4.0
47631.0,-4e-05,1e-05,5e-05,0.0,-0.00013,-3e-05,-2e-05,-0.00016,4.0
47632.0,-4e-05,1e-05,5e-05,0.0,-0.00013,-3e-05,-2e-05,-0.00016,4.0
47633.0,0.0,7e-05,7e-05,5e-05,3e-05,0.00012,5e-05,1e-05,4.0
47634.0,-1e-05,-8e-05,-0.0001,-0.00019,-0.00039,-0.00021,-4e-05,1e-05,4.0
47635.0,-1e-05,-8e-05,-0.0001,-0.00019,-0.00039,-0.00021,-4e-05,1e-05,4.0
47636.0,-1e-05,-8e-05,-0.0001,-0.00019,-0.00039,-0.00021,-4e-05,1e-05,4.0
47639.0,-1e-05,-8e-05,-0.0001,-0.00019,-0.00039,-0.00021,-4e-05,1e-05,4.0
47640.0,-1e-05,-8e-05,-0.0001,-0.00019,-0.00039,-0.00021,-4e-05,1e-05,4.0
47641.0,-1e-05,-8e-05,-0.0001,-0.00019,-0.00039,-0.00021,-4e-05,1e-05,4.0
47642.0,-1e-05,-8e-05,-0.0001,-0.00019,-0.00039,-0.00021,-4e-05,1e-05,4.0
47643.0,-1e-05,-8e-05,-0.0001,-0.00019,-0.00039,-0.00021,-4e-05,1e-05,4.0
47644.0,-1e-05,-8e-05,-0.0001,-0.00019,-0.00039,-0.00021,-4e-05,1e-05,4.0
47645.0,-1e-05,-8e-05,-0.0001,-0.00019,-0.00039,-0.00021,-4e-05,1e-05,4.0
47646.0,-1e-05,-8e-05,-0.0001,-0.00019,-0.00039,-0.00021,-4e-05,1e-05,4.0
47647.0,-1e-05,-8e-05,-0.0001,-0.00019,-0.00039,-0.00021,-4e-05,1e-05,4.0
47648.0,-2e-05,-1e-05,-1e-05,3e-05,0.00016,2e-05,-1e-05,-1e-05,4.0
47649.0,3e-05,1e-05,2e-05,-6e-05,-0.00021,-0.00013,1e-05,4e-05,4.0
47650.0,3e-05,1e-05,2e-05,-6e-05,-0.00021,-0.00013,1e-05,4e-05,4.0
47651.0,3e-05,1e-05,2e-05,-6e-05,-0.00021,-0.00013,1e-05,4e-05,4.0
47652.0,3e-05,1e-05,2e-05,-6e-05,-0.00021,-0.00013,1e-05,4e-05,4.0
47653.0,3e-05,1e-05,2e-05,-6e-05,-0.00021,-0.00013,1e-05,4e-05,4.0
47654.0,3e-05,1e-05,2e-05,-6e-05,-0.00021,-0.00013,1e-05,4e-05,4.0
47655.0,3e-05,1e-05,2e-05,-6e-05,-0.00021,-0.00013,1e-05,4e-05,4.0
47656.0,3e-05,1e-05,2e-05,-6e-05,-0.00021,-0.00013,1e-05,4e-05,4.0
47657.0,3e-05,1e-05,2e-05,-6e-05,-0.00021,-0.00013,1e-05,4e-05,4.0
47658.0,3e-05,1e-05,2e-05,-6e-05,-0.00021,-0.00013,1e-05,4e-05,4.0
47659.0,3e-05,1e-05,2e-05,-6e-05,-0.00021,-0.00013,1e-05,4e-05,4.0
47660.0,3e-05,1e-05,2e-05,-6e-05,-0.00021,-0.00013,1e-05,4e-05,4.0
47661.0,3e-05,1e-05,2e-05,-6e-05,-0.00021,-0.00013,1e-05,4e-05,4.0
47662.0,3e-05,1e-05,2e-05,-6e-05,-0.00021,-0.00013,1e-05,4e-05,4.0
47663.0,3e-05,1e-05,2e-05,-6e-05,-0.00021,-0.00013,1e-05,4e-05,4.0
47664.0,3e-05,1e-05,2e-05,-6e-05,-0.00021,-0.00013,1e-05,4e-05,4.0
47665.0,3e-05,1e-05,2e-05,-6e-05,-0.00021,-0.00013,1e-05,4e-05,4.0
47666.0,3e-05,1e-05,2e-05,-6e-05,-0.00021,-0.00013,1e-05,4e-05,4.0
47667.0,3e-05,1e-05,2e-05,-6e-05,-0.00021,-0.00013,1e-05,4e-05,4.0
47668.0,3e-05,1e-05,2e-05,-6e-05,-0.00021,-0.00013,1e-05,4e-05,4.0
47669.0,3e-05,1e-05,2e-05,-6e-05,-0.00021,-0.00013,1e-05,4e-05,4.0
47670.0,3e-05,1e-05,2e-05,-6e-05,-0.00021,-0.00013,1e-05,4e-05,4.0
47671.0,0.00012,0.00018,0.00016,0.0002,-2e-05,-3e-05,9e-05,0.00012,4.0
47672.0,-7e-05,-0.00015,-1e-05,0.0001,0.00017,0.00017,1e-05,-4e-05,4.0
47673.0,0.0,-6e-05,-0.00017,-0.00033,-0.00039,-0.00021,1e-05,4e-05,4.0
47674.0,0.0,-6e-05,-0.00017,-0.00033,-0.00039,-0.00021,1e-05,4e-05,4.0
47675.0,0.0,-6e-05,-0.00017,-0.00033,-0.00039,-0.00021,1e-05,4e-05,4.0
47676.0,0.0,-6e-05,-0.00017,-0.00033,-0.00039,-0.00021,1e-05,4e-05,4.0
47677.0,0.0,-6e-05,-0.00017,-0.00033,-0.00039,-0.00021,1e-05,4e-05,4.0
47678.0,0.0,-6e-05,-0.00017,-0.00033,-0.00039,-0.00021,1e-05,4e-05,4.0
47679.0,0.0,-6e-05,-0.00017,-0.00033,-0.00039,-0.00021,1e-05,4e-05,4.0
47680.0,0.0,-6e-05,-0.00017,-0.00033,-0.00039,-0.00021,1e-05,4e-05,4.0
47681.0,0.0,-6e-05,-0.00017,-0.00033,-0.00039,-0.00021,1e-05,4e-05,4.0
47682.0,0.0,-6e-05,-0.00017,-0.00033,-0.00039,-0.00021,1e-05,4e-05,4.0
47683.0,0.0,-6e-05,-0.00017,-0.00033,-0.00039,-0.00021,1e-05,4e-05,4.0
47684.0,0.0,-6e-05,-0.00017,-0.00033,-0.00039,-0.00021,1e-05,4e-05,4.0
47685.0,0.0,-6e-05,-0.00017,-0.00033,-0.00039,-0.00021,1e-05,4e-05,4.0
47686.0,0.0,-6e-05,-0.00017,-0.00033,-0.00039,-0.00021,1e-05,4e-05,4.0
47689.0,0.0,-6e-05,-0.00017,-0.00033,-0.00039,-0.00021,1e-05,4e-05,4.0
47690.0,0.0,-6e-05,-0.00017,-0.00033,-0.00039,-0.00021,1e-05,4e-05,4.0
47691.0,0.0,-6e-05,-0.00017,-0.00033,-0.00039,-0.00021,1e-05,4e-05,4.0
47692.0,0.0,-6e-05,-0.00017,-0.00033,-0.00039,-0.00021,1e-05,4e-05,4.0
47693.0,0.0,-6e-05,-0.00017,-0.00033,-0.00039,-0.00021,1e-05,4e-05,4.0
47694.0,2e-05,-1e-05,-7e-05,-0.00023,-0.00043,-9e-05,-2e-05,-1e-05,4.0
47695.0,5e-05,7e-05,6e-05,0.00017,0.00019,9e-05,5e-05,4e-05,4.0
47696.0,-3e-05,1e-05,5e-05,0.00012,6e-05,0.00011,1e-05,0.0,4.0
47697.0,-3e-05,1e-05,5e-05,0.00012,6e-05,0.00011,1e-05,0.0,4.0
47698.0,-3e-05,1e-05,5e-05,0.00012,6e-05,0.00011,1e-05,0.0,4.0
47699.0,-3e-05,1e-05,5e-05,0.00012,6e-05,0.00011,1e-05,0.0,4.0
47700.0,-3e-05,1e-05,5e-05,0.00012,6e-05,0.00011,1e-05,0.0,4.0
47701.0,-3e-05,1e-05,5e-05,0.00012,6e-05,0.00011,1e-05,0.0,4.0
47702.0,-3e-05,1e-05,5e-05,0.00012,6e-05,0.00011,1e-05,0.0,4.0
47703.0,-3e-05,1e-05,5e-05,0.00012,6e-05,0.00011,1e-05,0.0,4.0
47704.0,-3e-05,1e-05,5e-05,0.00012,6e-05,0.00011,1e-05,0.0,4.0
47705.0,-3e-05,1e-05,5e-05,0.00012,6e-05,0.00011,1e-05,0.0,4.0
47706.0,-3e-05,1e-05,5e-05,0.00012,6e-05,0.00011,1e-05,0.0,4.0
47707.0,-3e-05,1e-05,5e-05,0.00012,6e-05,0.00011,1e-05,0.0,4.0
47708.0,3e-05,4e-05,-2e-05,-0.00034,-0.00051,-0.00016,-2e-05,5e-05,4.0
47709.0,3e-05,4e-05,-2e-05,-0.00034,-0.00051,-0.00016,-2e-05,5e-05,4.0
47710.0,3e-05,4e-05,-2e-05,-0.00034,-0.00051,-0.00016,-2e-05,5e-05,4.0
47711.0,3e-05,4e-05,-2e-05,-0.00034,-0.00051,-0.00016,-2e-05,5e-05,4.0
47712.0,3e-05,4e-05,-2e-05,-0.00034,-0.00051,-0.00016,-2e-05,5e-05,4.0
47713.0,3e-05,4e-05,-2e-05,-0.00034,-0.00051,-0.00016,-2e-05,5e-05,4.0
47714.0,3e-05,4e-05,-2e-05,-0.00034,-0.00051,-0.00016,-2e-05,5e-05,4.0
47715.0,3e-05,4e-05,-2e-05,-0.00034,-0.00051,-0.00016,-2e-05,5e-05,4.0
47716.0,3e-05,4e-05,-2e-05,-0.00034,-0.00051,-0.00016,-2e-05,5e-05,4.0
47717.0,3e-05,4e-05,-2e-05,-0.00034,-0.00051,-0.00016,-2e-05,5e-05,4.0
47718.0,3e-05,4e-05,-2e-05,-0.00034,-0.00051,-0.00016,-2e-05,5e-05,4.0
47719.0,3e-05,4e-05,-2e-05,-0.00034,-0.00051,-0.00016,-2e-05,5e-05,4.0
47720.0,3e-05,4e-05,-2e-05,-0.00034,-0.00051,-0.00016,-2e-05,5e-05,4.0
47721.0,3e-05,4e-05,-2e-05,-0.00034,-0.00051,-0.00016,-2e-05,5e-05,4.0
47722.0,3e-05,4e-05,-2e-05,-0.00034,-0.00051,-0.00016,-2e-05,5e-05,4.0
47723.0,3e-05,4e-05,-2e-05,-0.00034,-0.00051,-0.00016,-2e-05,5e-05,4.0
47724.0,3e-05,4e-05,-2e-05,-0.00034,-0.00051,-0.00016,-2e-05,5e-05,4.0
47725.0,3e-05,4e-05,-2e-05,-0.00034,-0.00051,-0.00016,-2e-05,5e-05,4.0
47726.0,3e-05,4e-05,-2e-05,-0.00034,-0.00051,-0.00016,-2e-05,5e-05,4.0
47727.0,3e-05,4e-05,-2e-05,-0.00034,-0.00051,-0.00016,-2e-05,5e-05,4.0
47728.0,3e-05,4e-05,-2e-05,-0.00034,-0.00051,-0.00016,-2e-05,5e-05,4.0
47729.0,3e-05,4e-05,-2e-05,-0.00034,-0.00051,-0.00016,-2e-05,5e-05,4.0
47730.0,3e-05,4e-05,-2e-05,-0.00034,-0.00051,-0.00016,-2e-05,5e-05,4.0
47731.0,9e-05,0.00012,0.00011,0.0001,6e-05,7e-05,7e-05,0.00011,4.0
47732.0,-0.0001,-0.00015,-0.00013,-4e-05,6e-05,-0.00026,-0.00016,-8e-05,4.0
47733.0,-0.0001,-0.00015,-0.00013,-4e-05,6e-05,-0.00026,-0.00016,-8e-05,4.0
47734.0,-0.0001,-0.00015,-0.00013,-4e-05,6e-05,-0.00026,-0.00016,-8e-05,4.0
47735.0,-0.0001,-0.00015,-0.00013,-4e-05,6e-05,-0.00026,-0.00016,-8e-05,4.0
47737.0,-0.0001,-0.00015,-0.00013,-4e-05,6e-05,-0.00026,-0.00016,-8e-05,4.0
47740.0,-0.0001,-0.00015,-0.00013,-4e-05,6e-05,-0.00026,-0.00016,-8e-05,4.0
47741.0,-0.0001,-0.00015,-0.00013,-4e-05,6e-05,-0.00026,-0.00016,-8e-05,4.0
47742.0,-0.0001,-0.00015,-0.00013,-4e-05,6e-05,-0.00026,-0.00016,-8e-05,4.0
47743.0,-0.0001,-0.00015,-0.00013,-4e-05,6e-05,-0.00026,-0.00016,-8e-05,4.0
47744.0,-0.0001,-0.00015,-0.00013,-4e-05,6e-05,-0.00026,-0.00016,-8e-05,4.0
47745.0,-0.0001,-0.00015,-0.00013,-4e-05,6e-05,-0.00026,-0.00016,-8e-05,4.0
47746.0,-0.0001,-0.00015,-0.00013,-4e-05,6e-05,-0.00026,-0.00016,-8e-05,4.0
47747.0,-0.0001,-0.00015,-0.00013,-4e-05,6e-05,-0.00026,-0.00016,-8e-05,4.0
47748.0,-0.0001,-0.00015,-0.00013,-4e-05,6e-05,-0.00026,-0.00016,-8e-05,4.0
47749.0,-0.0001,-0.00015,-0.00013,-4e-05,6e-05,-0.00026,-0.00016,-8e-05,4.0
47750.0,-0.0001,-0.00015,-0.00013,-4e-05,6e-05,-0.00026,-0.00016,-8e-05,4.0
47751.0,-0.0001,-0.00015,-0.00013,-4e-05,6e-05,-0.00026,-0.00016,-8e-05,4.0
47752.0,-0.0001,-0.00015,-0.00013,-4e-05,6e-05,-0.00026,-0.00016,-8e-05,4.0
47753.0,-2e-05,-1e-05,1e-05,0.00012,0.00024,7e-05,-9e-05,-4e-05,4.0
47754.0,-5e-05,-2e-05,-4e-05,-0.0001,-0.00031,-7e-05,-4e-05,-8e-05,4.0
47755.0,-5e-05,-2e-05,-4e-05,-0.0001,-0.00031,-7e-05,-4e-05,-8e-05,4.0
47756.0,-5e-05,-2e-05,-4e-05,-0.0001,-0.00031,-7e-05,-4e-05,-8e-05,4.0
47757.0,-5e-05,-2e-05,-4e-05,-0.0001,-0.00031,-7e-05,-4e-05,-8e-05,4.0
47758.0,-5e-05,-2e-05,-4e-05,-0.0001,-0.00031,-7e-05,-4e-05,-8e-05,4.0
47759.0,-5e-05,-2e-05,-4e-05,-0.0001,-0.00031,-7e-05,-4e-05,-8e-05,4.0
47760.0,-5e-05,-2e-05,-4e-05,-0.0001,-0.00031,-7e-05,-4e-05,-8e-05,4.0
47761.0,-5e-05,-2e-05,-4e-05,-0.0001,-0.00031,-7e-05,-4e-05,-8e-05,4.0
47762.0,-5e-05,-2e-05,-4e-05,-0.0001,-0.00031,-7e-05,-4e-05,-8e-05,4.0
47763.0,-5e-05,-2e-05,-4e-05,-0.0001,-0.00031,-7e-05,-4e-05,-8e-05,4.0
47767.0,-5e-05,-2e-05,-4e-05,-0.0001,-0.00031,-7e-05,-4e-05,-8e-05,4.0
47768.0,0.0,1e-05,-5e-05,-0.00022,-0.0004,-0.00018,-5e-05,5e-05,4.0
47769.0,-8e-05,-0.0001,-9e-05,-4e-05,5e-05,-3e-05,-4e-05,-7e-05,4.0
47770.0,-8e-05,-0.0001,-9e-05,-4e-05,5e-05,-3e-05,-4e-05,-7e-05,4.0
47771.0,-8e-05,-0.0001,-9e-05,-4e-05,5e-05,-3e-05,-4e-05,-7e-05,4.0
47772.0,-8e-05,-0.0001,-9e-05,-4e-05,5e-05,-3e-05,-4e-05,-7e-05,4.0
47773.0,-8e-05,-0.0001,-9e-05,-4e-05,5e-05,-3e-05,-4e-05,-7e-05,4.0
47774.0,-8e-05,-0.0001,-9e-05,-4e-05,5e-05,-3e-05,-4e-05,-7e-05,4.0
47775.0,1e-05,3e-05,3e-05,-7e-05,-0.00011,-3e-05,-0.00011,0.0,4.0
47776.0,1e-05,3e-05,3e-05,-7e-05,-0.00011,-3e-05,-0.00011,0.0,4.0
47777.0,1e-05,3e-05,3e-05,-7e-05,-0.00011,-3e-05,-0.00011,0.0,4.0
47778.0,1e-05,3e-05,3e-05,-7e-05,-0.00011,-3e-05,-0.00011,0.0,4.0
47779.0,1e-05,3e-05,3e-05,-7e-05,-0.00011,-3e-05,-0.00011,0.0,4.0
47780.0,1e-05,3e-05,3e-05,-7e-05,-0.00011,-3e-05,-0.00011,0.0,4.0
47781.0,1e-05,3e-05,3e-05,-7e-05,-0.00011,-3e-05,-0.00011,0.0,4.0
47782.0,1e-05,3e-05,3e-05,-7e-05,-0.00011,-3e-05,-0.00011,0.0,4.0
47783.0,1e-05,3e-05,3e-05,-7e-05,-0.00011,-3e-05,-0.00011,0.0,4.0
47784.0,1e-05,3e-05,3e-05,-7e-05,-0.00011,-3e-05,-0.00011,0.0,4.0
47785.0,1e-05,3e-05,3e-05,-7e-05,-0.00011,-3e-05,-0.00011,0.0,4.0
47786.0,1e-05,3e-05,3e-05,-7e-05,-0.00011,-3e-05,-0.00011,0.0,4.0
47788.0,1e-05,3e-05,3e-05,-7e-05,-0.00011,-3e-05,-0.00011,0.0,4.0
47789.0,1e-05,3e-05,3e-05,-7e-05,-0.00011,-3e-05,-0.00011,0.0,4.0
47790.0,1e-05,3e-05,3e-05,-7e-05,-0.00011,-3e-05,-0.00011,0.0,4.0
47791.0,1e-05,3e-05,3e-05,-7e-05,-0.00011,-3e-05,-0.00011,0.0,4.0
47792.0,1e-05,3e-05,3e-05,-7e-05,-0.00011,-3e-05,-0.00011,0.0,4.0
47793.0,1e-05,3e-05,3e-05,-7e-05,-0.00011,-3e-05,-0.00011,0.0,4.0
47794.0,1e-05,3e-05,3e-05,-7e-05,-0.00011,-3e-05,-0.00011,0.0,4.0
47795.0,1e-05,3e-05,3e-05,-7e-05,-0.00011,-3e-05,-0.00011,0.0,4.0
47796.0,1e-05,3e-05,3e-05,-7e-05,-0.00011,-3e-05,-0.00011,0.0,4.0
47797.0,1e-05,3e-05,3e-05,-7e-05,-0.00011,-3e-05,-0.00011,0.0,4.0
47798.0,1e-05,3e-05,3e-05,-7e-05,-0.00011,-3e-05,-0.00011,0.0,4.0
47799.0,1e-05,3e-05,3e-05,-7e-05,-0.00011,-3e-05,-0.00011,0.0,4.0
47800.0,1e-05,3e-05,3e-05,-7e-05,-0.00011,-3e-05,-0.00011,0.0,4.0
47801.0,1e-05,3e-05,3e-05,-7e-05,-0.00011,-3e-05,-0.00011,0.0,4.0
47802.0,1e-05,3e-05,3e-05,-7e-05,-0.00011,-3e-05,-0.00011,0.0,4.0
47803.0,1e-05,3e-05,3e-05,-7e-05,-0.00011,-3e-05,-0.00011,0.0,4.0
47804.0,1e-05,3e-05,3e-05,-7e-05,-0.00011,-3e-05,-0.00011,0.0,4.0
47805.0,1e-05,3e-05,3e-05,-7e-05,-0.00011,-3e-05,-0.00011,0.0,4.0
47806.0,1e-05,0.0,2e-05,0.00012,0.00031,0.00012,7e-05,7e-05,4.0
47807.0,1e-05,0.0,2e-05,0.00012,0.00031,0.00012,7e-05,7e-05,4.0
47808.0,1e-05,0.0,2e-05,0.00012,0.00031,0.00012,7e-05,7e-05,4.0
47809.0,1e-05,0.0,2e-05,0.00012,0.00031,0.00012,7e-05,7e-05,4.0
47810.0,1e-05,0.0,2e-05,0.00012,0.00031,0.00012,7e-05,7e-05,4.0
47811.0,1e-05,0.0,2e-05,0.00012,0.00031,0.00012,7e-05,7e-05,4.0
47812.0,1e-05,0.0,2e-05,0.00012,0.00031,0.00012,7e-05,7e-05,4.0
47813.0,1e-05,0.0,2e-05,0.00012,0.00031,0.00012,7e-05,7e-05,4.0
47814.0,1e-05,0.0,2e-05,0.00012,0.00031,0.00012,7e-05,7e-05,4.0
47815.0,1e-05,0.0,2e-05,0.00012,0.00031,0.00012,7e-05,7e-05,4.0
47816.0,1e-05,0.0,2e-05,0.00012,0.00031,0.00012,7e-05,7e-05,4.0
47817.0,1e-05,0.0,2e-05,0.00012,0.00031,0.00012,7e-05,7e-05,4.0
47818.0,1e-05,0.0,2e-05,0.00012,0.00031,0.00012,7e-05,7e-05,4.0
47819.0,1e-05,0.0,2e-05,0.00012,0.00031,0.00012,7e-05,7e-05,4.0
47820.0,2e-05,1e-05,-1e-05,-3e-05,0.00027,0.00017,3e-05,2e-05,4.0
47821.0,0.0,-3e-05,0.0001,0.00029,0.00052,0.00024,0.0001,3e-05,4.0
47822.0,0.0,-3e-05,0.0001,0.00029,0.00052,0.00024,0.0001,3e-05,4.0
47823.0,0.0,-3e-05,0.0001,0.00029,0.00052,0.00024,0.0001,3e-05,4.0
47824.0,0.0,-3e-05,0.0001,0.00029,0.00052,0.00024,0.0001,3e-05,4.0
47825.0,0.0,-3e-05,0.0001,0.00029,0.00052,0.00024,0.0001,3e-05,4.0
47826.0,0.0,-3e-05,0.0001,0.00029,0.00052,0.00024,0.0001,3e-05,4.0
47827.0,0.0,-3e-05,0.0001,0.00029,0.00052,0.00024,0.0001,3e-05,4.0
47828.0,0.0,-3e-05,0.0001,0.00029,0.00052,0.00024,0.0001,3e-05,4.0
47829.0,-8e-05,-0.0001,-0.00012,-0.00016,-0.00029,-0.00027,-0.0002,-0.00013,4.0
47830.0,0.0001,0.00012,8e-05,0.0001,7e-05,7e-05,0.00011,0.0001,4.0
47831.0,0.0001,0.00012,8e-05,0.0001,7e-05,7e-05,0.00011,0.0001,4.0
47832.0,0.0001,0.00012,8e-05,0.0001,7e-05,7e-05,0.00011,0.0001,4.0
47833.0,0.0001,0.00012,8e-05,0.0001,7e-05,7e-05,0.00011,0.0001,4.0
47834.0,0.0001,0.00012,8e-05,0.0001,7e-05,7e-05,0.00011,0.0001,4.0
47835.0,0.0001,0.00012,8e-05,0.0001,7e-05,7e-05,0.00011,0.0001,4.0
47836.0,0.0001,0.00012,8e-05,0.0001,7e-05,7e-05,0.00011,0.0001,4.0
47838.0,0.0001,0.00012,8e-05,0.0001,7e-05,7e-05,0.00011,0.0001,4.0
47839.0,0.0001,0.00012,8e-05,0.0001,7e-05,7e-05,0.00011,0.0001,4.0
47840.0,0.0001,0.00012,8e-05,0.0001,7e-05,7e-05,0.00011,0.0001,4.0
47841.0,0.0001,0.00012,8e-05,0.0001,7e-05,7e-05,0.00011,0.0001,4.0
47842.0,0.0001,0.00012,8e-05,0.0001,7e-05,7e-05,0.00011,0.0001,4.0
47843.0,0.0001,0.00012,8e-05,0.0001,7e-05,7e-05,0.00011,0.0001,4.0
47844.0,0.0001,0.00012,8e-05,0.0001,7e-05,7e-05,0.00011,0.0001,4.0
47845.0,0.0001,0.00012,8e-05,0.0001,7e-05,7e-05,0.00011,0.0001,4.0
47846.0,0.0001,0.00012,8e-05,0.0001,7e-05,7e-05,0.00011,0.0001,4.0
47847.0,0.0001,0.00012,8e-05,0.0001,7e-05,7e-05,0.00011,0.0001,4.0
47848.0,0.0001,0.00012,8e-05,0.0001,7e-05,7e-05,0.00011,0.0001,4.0
47849.0,0.0001,0.00012,8e-05,0.0001,7e-05,7e-05,0.00011,0.0001,4.0
47850.0,0.0001,0.00012,8e-05,0.0001,7e-05,7e-05,0.00011,0.0001,4.0
47851.0,-5e-05,-0.00011,-8e-05,-7e-05,-4e-05,-0.00023,-0.00015,-9e-05,4.0
47852.0,-4e-05,1e-05,2e-05,0.0,-0.00012,3e-05,-1e-05,-0.00011,4.0
47853.0,-4e-05,1e-05,2e-05,0.0,-0.00012,3e-05,-1e-05,-0.00011,4.0
47854.0,-4e-05,1e-05,2e-05,0.0,-0.00012,3e-05,-1e-05,-0.00011,4.0
47855.0,-4e-05,1e-05,2e-05,0.0,-0.00012,3e-05,-1e-05,-0.00011,4.0
47856.0,-4e-05,1e-05,2e-05,0.0,-0.00012,3e-05,-1e-05,-0.00011,4.0
47857.0,-4e-05,1e-05,2e-05,0.0,-0.00012,3e-05,-1e-05,-0.00011,4.0
47858.0,-4e-05,1e-05,2e-05,0.0,-0.00012,3e-05,-1e-05,-0.00011,4.0
47859.0,-4e-05,1e-05,2e-05,0.0,-0.00012,3e-05,-1e-05,-0.00011,4.0
47860.0,-4e-05,1e-05,2e-05,0.0,-0.00012,3e-05,-1e-05,-0.00011,4.0
47861.0,-4e-05,1e-05,2e-05,0.0,-0.00012,3e-05,-1e-05,-0.00011,4.0
47862.0,-4e-05,1e-05,2e-05,0.0,-0.00012,3e-05,-1e-05,-0.00011,4.0
47863.0,-4e-05,1e-05,2e-05,0.0,-0.00012,3e-05,-1e-05,-0.00011,4.0
47864.0,-4e-05,1e-05,2e-05,0.0,-0.00012,3e-05,-1e-05,-0.00011,4.0
47865.0,-4e-05,1e-05,2e-05,0.0,-0.00012,3e-05,-1e-05,-0.00011,4.0
47866.0,-4e-05,1e-05,2e-05,0.0,-0.00012,3e-05,-1e-05,-0.00011,4.0
47867.0,-4e-05,1e-05,2e-05,0.0,-0.00012,3e-05,-1e-05,-0.00011,4.0
47868.0,-4e-05,1e-05,2e-05,0.0,-0.00012,3e-05,-1e-05,-0.00011,4.0
47869.0,-4e-05,1e-05,2e-05,0.0,-0.00012,3e-05,-1e-05,-0.00011,4.0
47870.0,-4e-05,1e-05,2e-05,0.0,-0.00012,3e-05,-1e-05,-0.00011,4.0
47871.0,-4e-05,1e-05,2e-05,0.0,-0.00012,3e-05,-1e-05,-0.00011,4.0
47872.0,-4e-05,1e-05,2e-05,0.0,-0.00012,3e-05,-1e-05,-0.00011,4.0
47873.0,-1e-05,5e-05,3e-05,-0.00011,-0.00039,-0.00021,-4e-05,-3e-05,4.0
47874.0,3e-05,1e-05,-3e-05,-0.00023,-0.00039,-2e-05,9e-05,8e-05,4.0
47875.0,3e-05,1e-05,-3e-05,-0.00023,-0.00039,-2e-05,9e-05,8e-05,4.0
47876.0,3e-05,1e-05,-3e-05,-0.00023,-0.00039,-2e-05,9e-05,8e-05,4.0
47877.0,3e-05,1e-05,-3e-05,-0.00023,-0.00039,-2e-05,9e-05,8e-05,4.0
47878.0,3e-05,1e-05,-3e-05,-0.00023,-0.00039,-2e-05,9e-05,8e-05,4.0
47879.0,3e-05,1e-05,-3e-05,-0.00023,-0.00039,-2e-05,9e-05,8e-05,4.0
47880.0,3e-05,1e-05,-3e-05,-0.00023,-0.00039,-2e-05,9e-05,8e-05,4.0
47881.0,3e-05,1e-05,-3e-05,-0.00023,-0.00039,-2e-05,9e-05,8e-05,4.0
47882.0,3e-05,1e-05,-3e-05,-0.00023,-0.00039,-2e-05,9e-05,8e-05,4.0
47883.0,3e-05,1e-05,-3e-05,-0.00023,-0.00039,-2e-05,9e-05,8e-05,4.0
47884.0,3e-05,1e-05,-3e-05,-0.00023,-0.00039,-2e-05,9e-05,8e-05,4.0
47885.0,3e-05,1e-05,-3e-05,-0.00023,-0.00039,-2e-05,9e-05,8e-05,4.0
47886.0,3e-05,1e-05,-3e-05,-0.00023,-0.00039,-2e-05,9e-05,8e-05,4.0
47888.0,3e-05,1e-05,-3e-05,-0.00023,-0.00039,-2e-05,9e-05,8e-05,4.0
47889.0,3e-05,1e-05,-3e-05,-0.00023,-0.00039,-2e-05,9e-05,8e-05,4.0
47890.0,3e-05,1e-05,-3e-05,-0.00023,-0.00039,-2e-05,9e-05,8e-05,4.0
47891.0,3e-05,1e-05,-3e-05,-0.00023,-0.00039,-2e-05,9e-05,8e-05,4.0
47892.0,3e-05,1e-05,-3e-05,-0.00023,-0.00039,-2e-05,9e-05,8e-05,4.0
47893.0,3e-05,1e-05,-3e-05,-0.00023,-0.00039,-2e-05,9e-05,8e-05,4.0
47894.0,3e-05,1e-05,-3e-05,-0.00023,-0.00039,-2e-05,9e-05,8e-05,4.0
47895.0,3e-05,1e-05,-3e-05,-0.00023,-0.00039,-2e-05,9e-05,8e-05,4.0
47896.0,-6e-05,-4e-05,-6e-05,-0.00019,-0.00029,-0.00021,-7e-05,-7e-05,4.0
47897.0,-6e-05,-4e-05,-6e-05,-0.00019,-0.00029,-0.00021,-7e-05,-7e-05,4.0
47898.0,-6e-05,-4e-05,-6e-05,-0.00019,-0.00029,-0.00021,-7e-05,-7e-05,4.0
47899.0,-6e-05,-4e-05,-6e-05,-0.00019,-0.00029,-0.00021,-7e-05,-7e-05,4.0
47900.0,-6e-05,-4e-05,-6e-05,-0.00019,-0.00029,-0.00021,-7e-05,-7e-05,4.0
47901.0,-6e-05,-4e-05,-6e-05,-0.00019,-0.00029,-0.00021,-7e-05,-7e-05,4.0
47902.0,4e-05,3e-05,9e-05,0.00012,0.00026,0.00019,8e-05,0.0001,4.0
47903.0,-1e-05,-2e-05,0.0,7e-05,0.00018,9e-05,0.0,0.0,4.0
47904.0,-1e-05,-2e-05,0.0,7e-05,0.00018,9e-05,0.0,0.0,4.0
47905.0,-1e-05,-2e-05,0.0,7e-05,0.00018,9e-05,0.0,0.0,4.0
47906.0,-1e-05,-2e-05,0.0,7e-05,0.00018,9e-05,0.0,0.0,4.0
47907.0,-1e-05,-2e-05,0.0,7e-05,0.00018,9e-05,0.0,0.0,4.0
47908.0,-1e-05,-2e-05,0.0,7e-05,0.00018,9e-05,0.0,0.0,4.0
47909.0,-1e-05,-2e-05,0.0,7e-05,0.00018,9e-05,0.0,0.0,4.0
47910.0,-1e-05,-2e-05,0.0,7e-05,0.00018,9e-05,0.0,0.0,4.0
47911.0,5e-05,6e-05,9e-05,9e-05,0.00029,0.00041,0.0002,6e-05,4.0
47912.0,5e-05,7e-05,0.00015,0.00041,0.00044,7e-05,5e-05,7e-05,4.0
47913.0,5e-05,7e-05,0.00015,0.00041,0.00044,7e-05,5e-05,7e-05,4.0
47914.0,5e-05,7e-05,0.00015,0.00041,0.00044,7e-05,5e-05,7e-05,4.0
47915.0,5e-05,7e-05,0.00015,0.00041,0.00044,7e-05,5e-05,7e-05,4.0
47916.0,5e-05,7e-05,0.00015,0.00041,0.00044,7e-05,5e-05,7e-05,4.0
47917.0,5e-05,7e-05,0.00015,0.00041,0.00044,7e-05,5e-05,7e-05,4.0
47918.0,5e-05,7e-05,0.00015,0.00041,0.00044,7e-05,5e-05,7e-05,4.0
47919.0,5e-05,7e-05,0.00015,0.00041,0.00044,7e-05,5e-05,7e-05,4.0
47920.0,5e-05,7e-05,0.00015,0.00041,0.00044,7e-05,5e-05,7e-05,4.0
47921.0,5e-05,7e-05,0.00015,0.00041,0.00044,7e-05,5e-05,7e-05,4.0
47922.0,5e-05,7e-05,0.00015,0.00041,0.00044,7e-05,5e-05,7e-05,4.0
47923.0,5e-05,7e-05,0.00015,0.00041,0.00044,7e-05,5e-05,7e-05,4.0
47924.0,5e-05,7e-05,0.00015,0.00041,0.00044,7e-05,5e-05,7e-05,4.0
47925.0,5e-05,7e-05,0.00015,0.00041,0.00044,7e-05,5e-05,7e-05,4.0
47926.0,5e-05,7e-05,0.00015,0.00041,0.00044,7e-05,5e-05,7e-05,4.0
47927.0,5e-05,7e-05,0.00015,0.00041,0.00044,7e-05,5e-05,7e-05,4.0
47928.0,5e-05,7e-05,0.00015,0.00041,0.00044,7e-05,5e-05,7e-05,4.0
47929.0,5e-05,7e-05,0.00015,0.00041,0.00044,7e-05,5e-05,7e-05,4.0
47930.0,5e-05,7e-05,0.00015,0.00041,0.00044,7e-05,5e-05,7e-05,4.0
47931.0,5e-05,7e-05,0.00015,0.00041,0.00044,7e-05,5e-05,7e-05,4.0
47932.0,5e-05,7e-05,0.00015,0.00041,0.00044,7e-05,5e-05,7e-05,4.0
47933.0,0.0,0.0,-2e-05,-4e-05,-5e-05,-0.0001,-6e-05,-2e-05,4.0
47934.0,-1e-05,-7e-05,-0.00017,-0.00037,-0.00033,-0.00015,-3e-05,6e-05,4.0
47935.0,-1e-05,-7e-05,-0.00017,-0.00037,-0.00033,-0.00015,-3e-05,6e-05,4.0
47936.0,-1e-05,-7e-05,-0.00017,-0.00037,-0.00033,-0.00015,-3e-05,6e-05,4.0
47938.0,-1e-05,-7e-05,-0.00017,-0.00037,-0.00033,-0.00015,-3e-05,6e-05,4.0
47939.0,-1e-05,-7e-05,-0.00017,-0.00037,-0.00033,-0.00015,-3e-05,6e-05,4.0
47940.0,-1e-05,-7e-05,-0.00017,-0.00037,-0.00033,-0.00015,-3e-05,6e-05,4.0
47941.0,-1e-05,-7e-05,-0.00017,-0.00037,-0.00033,-0.00015,-3e-05,6e-05,4.0
47942.0,-1e-05,-7e-05,-0.00017,-0.00037,-0.00033,-0.00015,-3e-05,6e-05,4.0
47943.0,-1e-05,-7e-05,-0.00017,-0.00037,-0.00033,-0.00015,-3e-05,6e-05,4.0
47944.0,-1e-05,-7e-05,-0.00017,-0.00037,-0.00033,-0.00015,-3e-05,6e-05,4.0
47945.0,-1e-05,-7e-05,-0.00017,-0.00037,-0.00033,-0.00015,-3e-05,6e-05,4.0
47946.0,-1e-05,-7e-05,-0.00017,-0.00037,-0.00033,-0.00015,-3e-05,6e-05,4.0
47947.0,-1e-05,-7e-05,-0.00017,-0.00037,-0.00033,-0.00015,-3e-05,6e-05,4.0
47948.0,-1e-05,-7e-05,-0.00017,-0.00037,-0.00033,-0.00015,-3e-05,6e-05,4.0
47949.0,-1e-05,-7e-05,-0.00017,-0.00037,-0.00033,-0.00015,-3e-05,6e-05,4.0
47950.0,-1e-05,-7e-05,-0.00017,-0.00037,-0.00033,-0.00015,-3e-05,6e-05,4.0
47951.0,-1e-05,-7e-05,-0.00017,-0.00037,-0.00033,-0.00015,-3e-05,6e-05,4.0
47952.0,-1e-05,-7e-05,-0.00017,-0.00037,-0.00033,-0.00015,-3e-05,6e-05,4.0
47953.0,-1e-05,-7e-05,-0.00017,-0.00037,-0.00033,-0.00015,-3e-05,6e-05,4.0
47954.0,-1e-05,-7e-05,-0.00017,-0.00037,-0.00033,-0.00015,-3e-05,6e-05,4.0
47955.0,-1e-05,-7e-05,-0.00017,-0.00037,-0.00033,-0.00015,-3e-05,6e-05,4.0
47956.0,-4e-05,-2e-05,8e-05,0.00031,0.00016,-9e-05,-6e-05,-6e-05,4.0
47957.0,3e-05,3e-05,-5e-05,-0.00042,-0.00054,-0.00019,-2e-05,4e-05,4.0
47958.0,3e-05,3e-05,-5e-05,-0.00042,-0.00054,-0.00019,-2e-05,4e-05,4.0
47959.0,3e-05,3e-05,-5e-05,-0.00042,-0.00054,-0.00019,-2e-05,4e-05,4.0
47960.0,3e-05,3e-05,-5e-05,-0.00042,-0.00054,-0.00019,-2e-05,4e-05,4.0
47961.0,3e-05,3e-05,-5e-05,-0.00042,-0.00054,-0.00019,-2e-05,4e-05,4.0
47962.0,3e-05,3e-05,-5e-05,-0.00042,-0.00054,-0.00019,-2e-05,4e-05,4.0
47963.0,3e-05,3e-05,-5e-05,-0.00042,-0.00054,-0.00019,-2e-05,4e-05,4.0
47964.0,3e-05,3e-05,-5e-05,-0.00042,-0.00054,-0.00019,-2e-05,4e-05,4.0
47965.0,3e-05,3e-05,-5e-05,-0.00042,-0.00054,-0.00019,-2e-05,4e-05,4.0
47966.0,3e-05,3e-05,-5e-05,-0.00042,-0.00054,-0.00019,-2e-05,4e-05,4.0
47967.0,3e-05,3e-05,-5e-05,-0.00042,-0.00054,-0.00019,-2e-05,4e-05,4.0
47968.0,3e-05,3e-05,-5e-05,-0.00042,-0.00054,-0.00019,-2e-05,4e-05,4.0
47969.0,3e-05,3e-05,-5e-05,-0.00042,-0.00054,-0.00019,-2e-05,4e-05,4.0
47970.0,3e-05,3e-05,-5e-05,-0.00042,-0.00054,-0.00019,-2e-05,4e-05,4.0
47971.0,-1e-05,1e-05,-1e-05,-7e-05,-8e-05,0.00017,6e-05,2e-05,4.0
47972.0,2e-05,2e-05,4e-05,0.0001,0.00021,0.00029,0.00012,1e-05,4.0
47973.0,2e-05,2e-05,4e-05,0.0001,0.00021,0.00029,0.00012,1e-05,4.0
47974.0,2e-05,2e-05,4e-05,0.0001,0.00021,0.00029,0.00012,1e-05,4.0
47975.0,2e-05,2e-05,4e-05,0.0001,0.00021,0.00029,0.00012,1e-05,4.0
47976.0,2e-05,2e-05,4e-05,0.0001,0.00021,0.00029,0.00012,1e-05,4.0
47977.0,2e-05,2e-05,4e-05,0.0001,0.00021,0.00029,0.00012,1e-05,4.0
47978.0,2e-05,2e-05,4e-05,0.0001,0.00021,0.00029,0.00012,1e-05,4.0
47979.0,2e-05,2e-05,4e-05,0.0001,0.00021,0.00029,0.00012,1e-05,4.0
47980.0,2e-05,2e-05,4e-05,0.0001,0.00021,0.00029,0.00012,1e-05,4.0
47981.0,2e-05,2e-05,4e-05,0.0001,0.00021,0.00029,0.00012,1e-05,4.0
47982.0,2e-05,2e-05,4e-05,0.0001,0.00021,0.00029,0.00012,1e-05,4.0
47983.0,2e-05,2e-05,4e-05,0.0001,0.00021,0.00029,0.00012,1e-05,4.0
47984.0,2e-05,2e-05,4e-05,0.0001,0.00021,0.00029,0.00012,1e-05,4.0
47985.0,2e-05,2e-05,4e-05,0.0001,0.00021,0.00029,0.00012,1e-05,4.0
47986.0,2e-05,2e-05,4e-05,0.0001,0.00021,0.00029,0.00012,1e-05,4.0
47988.0,2e-05,2e-05,4e-05,0.0001,0.00021,0.00029,0.00012,1e-05,4.0
47989.0,2e-05,2e-05,4e-05,0.0001,0.00021,0.00029,0.00012,1e-05,4.0
47990.0,2e-05,2e-05,4e-05,0.0001,0.00021,0.00029,0.00012,1e-05,4.0
47991.0,2e-05,2e-05,4e-05,0.0001,0.00021,0.00029,0.00012,1e-05,4.0
47992.0,2e-05,2e-05,4e-05,0.0001,0.00021,0.00029,0.00012,1e-05,4.0
47993.0,2e-05,2e-05,4e-05,0.0001,0.00021,0.00029,0.00012,1e-05,4.0
47994.0,2e-05,2e-05,4e-05,0.0001,0.00021,0.00029,0.00012,1e-05,4.0
47995.0,2e-05,2e-05,4e-05,0.0001,0.00021,0.00029,0.00012,1e-05,4.0
47996.0,2e-05,2e-05,4e-05,0.0001,0.00021,0.00029,0.00012,1e-05,4.0
47997.0,2e-05,2e-05,4e-05,0.0001,0.00021,0.00029,0.00012,1e-05,4.0
47998.0,2e-05,2e-05,4e-05,0.0001,0.00021,0.00029,0.00012,1e-05,4.0
47999.0,2e-05,2e-05,4e-05,0.0001,0.00021,0.00029,0.00012,1e-05,4.0
48000.0,2e-05,2e-05,4e-05,0.0001,0.00021,0.00029,0.00012,1e-05,4.0
48001.0,-0.00014,-0.00011,-9e-05,-0.0001,-0.00021,-0.00023,-0.00017,-0.0002,4.0
48002.0,-0.00014,-0.00011,-9e-05,-0.0001,-0.00021,-0.00023,-0.00017,-0.0002,4.0
48003.0,-0.00014,-0.00011,-9e-05,-0.0001,-0.00021,-0.00023,-0.00017,-0.0002,4.0
48004.0,-0.00014,-0.00011,-9e-05,-0.0001,-0.00021,-0.00023,-0.00017,-0.0002,4.0
48005.0,-0.00014,-0.00011,-9e-05,-0.0001,-0.00021,-0.00023,-0.00017,-0.0002,4.0
48006.0,-0.00014,-0.00011,-9e-05,-0.0001,-0.00021,-0.00023,-0.00017,-0.0002,4.0
48007.0,-1e-05,-2e-05,-3e-05,-6e-05,-0.00013,-8e-05,-0.00015,-0.00017,4.0
48008.0,-1e-05,-2e-05,-3e-05,-6e-05,-0.00013,-8e-05,-0.00015,-0.00017,4.0
48009.0,-1e-05,-2e-05,-3e-05,-6e-05,-0.00013,-8e-05,-0.00015,-0.00017,4.0
48010.0,-1e-05,-2e-05,-3e-05,-6e-05,-0.00013,-8e-05,-0.00015,-0.00017,4.0
48011.0,-1e-05,-2e-05,-3e-05,-6e-05,-0.00013,-8e-05,-0.00015,-0.00017,4.0
48012.0,-1e-05,-2e-05,-3e-05,-6e-05,-0.00013,-8e-05,-0.00015,-0.00017,4.0
48013.0,-1e-05,-2e-05,-3e-05,-6e-05,-0.00013,-8e-05,-0.00015,-0.00017,4.0
48014.0,-1e-05,-2e-05,-3e-05,-6e-05,-0.00013,-8e-05,-0.00015,-0.00017,4.0
48015.0,-1e-05,-2e-05,-3e-05,-6e-05,-0.00013,-8e-05,-0.00015,-0.00017,4.0
48016.0,-1e-05,-2e-05,-3e-05,-6e-05,-0.00013,-8e-05,-0.00015,-0.00017,4.0
48017.0,-1e-05,-2e-05,-3e-05,-6e-05,-0.00013,-8e-05,-0.00015,-0.00017,4.0
48018.0,-1e-05,-2e-05,-3e-05,-6e-05,-0.00013,-8e-05,-0.00015,-0.00017,4.0
48019.0,-1e-05,-2e-05,-3e-05,-6e-05,-0.00013,-8e-05,-0.00015,-0.00017,4.0
48020.0,-1e-05,-2e-05,-3e-05,-6e-05,-0.00013,-8e-05,-0.00015,-0.00017,4.0
48021.0,-1e-05,-2e-05,-3e-05,-6e-05,-0.00013,-8e-05,-0.00015,-0.00017,4.0
48022.0,-1e-05,-2e-05,-3e-05,-6e-05,-0.00013,-8e-05,-0.00015,-0.00017,4.0
48023.0,-3e-05,-1e-05,-3e-05,-0.00013,-0.00026,-0.0001,-0.0001,-0.0001,4.0
48024.0,-3e-05,-1e-05,-3e-05,-0.00013,-0.00026,-0.0001,-0.0001,-0.0001,4.0
48025.0,-3e-05,-1e-05,-3e-05,-0.00013,-0.00026,-0.0001,-0.0001,-0.0001,4.0
48026.0,-3e-05,-1e-05,-3e-05,-0.00013,-0.00026,-0.0001,-0.0001,-0.0001,4.0
48027.0,-3e-05,-1e-05,-3e-05,-0.00013,-0.00026,-0.0001,-0.0001,-0.0001,4.0
48028.0,-3e-05,-1e-05,-3e-05,-0.00013,-0.00026,-0.0001,-0.0001,-0.0001,4.0
48029.0,-3e-05,-1e-05,-3e-05,-0.00013,-0.00026,-0.0001,-0.0001,-0.0001,4.0
48030.0,-3e-05,-1e-05,-3e-05,-0.00013,-0.00026,-0.0001,-0.0001,-0.0001,4.0
48031.0,-1e-05,1e-05,1e-05,-7e-05,-0.00018,0.0,3e-05,2e-05,4.0
48032.0,0.0,-3e-05,-3e-05,0.00013,0.00014,-5e-05,-6e-05,-4e-05,4.0
48033.0,0.0,-3e-05,-3e-05,0.00013,0.00014,-5e-05,-6e-05,-4e-05,4.0
48034.0,0.0,-3e-05,-3e-05,0.00013,0.00014,-5e-05,-6e-05,-4e-05,4.0
48035.0,0.0,-3e-05,-3e-05,0.00013,0.00014,-5e-05,-6e-05,-4e-05,4.0
48036.0,0.0,-3e-05,-3e-05,0.00013,0.00014,-5e-05,-6e-05,-4e-05,4.0
48038.0,0.0,-3e-05,-3e-05,0.00013,0.00014,-5e-05,-6e-05,-4e-05,4.0
48039.0,0.0,-3e-05,-3e-05,0.00013,0.00014,-5e-05,-6e-05,-4e-05,4.0
48040.0,0.0,-3e-05,-3e-05,0.00013,0.00014,-5e-05,-6e-05,-4e-05,4.0
48041.0,0.0,-3e-05,-3e-05,0.00013,0.00014,-5e-05,-6e-05,-4e-05,4.0
48042.0,0.0,-3e-05,-3e-05,0.00013,0.00014,-5e-05,-6e-05,-4e-05,4.0
48043.0,0.0,-3e-05,-3e-05,0.00013,0.00014,-5e-05,-6e-05,-4e-05,4.0
48044.0,0.0,-3e-05,-3e-05,0.00013,0.00014,-5e-05,-6e-05,-4e-05,4.0
48045.0,0.0,-3e-05,-3e-05,0.00013,0.00014,-5e-05,-6e-05,-4e-05,4.0
48046.0,0.0,-3e-05,-3e-05,0.00013,0.00014,-5e-05,-6e-05,-4e-05,4.0
48047.0,0.0,-3e-05,-3e-05,0.00013,0.00014,-5e-05,-6e-05,-4e-05,4.0
48048.0,0.0,-3e-05,-3e-05,0.00013,0.00014,-5e-05,-6e-05,-4e-05,4.0
48049.0,0.0,-3e-05,-3e-05,0.00013,0.00014,-5e-05,-6e-05,-4e-05,4.0
48050.0,0.0,-3e-05,-3e-05,0.00013,0.00014,-5e-05,-6e-05,-4e-05,4.0
48051.0,0.0,-3e-05,-3e-05,0.00013,0.00014,-5e-05,-6e-05,-4e-05,4.0
48052.0,0.0,-3e-05,-3e-05,0.00013,0.00014,-5e-05,-6e-05,-4e-05,4.0
48053.0,-0.0001,-0.00013,-0.00016,-0.00013,5e-05,-2e-05,2e-05,1e-05,4.0
48054.0,-4e-05,-4e-05,-5e-05,3e-05,3e-05,3e-05,-1e-05,2e-05,4.0
48055.0,-4e-05,-4e-05,-5e-05,3e-05,3e-05,3e-05,-1e-05,2e-05,4.0
48056.0,-4e-05,-4e-05,-5e-05,3e-05,3e-05,3e-05,-1e-05,2e-05,4.0
48057.0,-4e-05,-4e-05,-5e-05,3e-05,3e-05,3e-05,-1e-05,2e-05,4.0
48058.0,-4e-05,-4e-05,-5e-05,3e-05,3e-05,3e-05,-1e-05,2e-05,4.0
48059.0,-4e-05,-4e-05,-5e-05,3e-05,3e-05,3e-05,-1e-05,2e-05,4.0
48060.0,-4e-05,-4e-05,-5e-05,3e-05,3e-05,3e-05,-1e-05,2e-05,4.0
48061.0,-4e-05,-4e-05,-5e-05,3e-05,3e-05,3e-05,-1e-05,2e-05,4.0
48062.0,-4e-05,-4e-05,-5e-05,3e-05,3e-05,3e-05,-1e-05,2e-05,4.0
48063.0,-4e-05,-4e-05,-5e-05,3e-05,3e-05,3e-05,-1e-05,2e-05,4.0
48064.0,-4e-05,-4e-05,-5e-05,3e-05,3e-05,3e-05,-1e-05,2e-05,4.0
48065.0,-4e-05,-4e-05,-5e-05,3e-05,3e-05,3e-05,-1e-05,2e-05,4.0
48066.0,-4e-05,-4e-05,-5e-05,3e-05,3e-05,3e-05,-1e-05,2e-05,4.0
48067.0,-4e-05,-4e-05,-5e-05,3e-05,3e-05,3e-05,-1e-05,2e-05,4.0
48068.0,-4e-05,-4e-05,-5e-05,3e-05,3e-05,3e-05,-1e-05,2e-05,4.0
48069.0,-4e-05,-4e-05,-5e-05,3e-05,3e-05,3e-05,-1e-05,2e-05,4.0
48070.0,-4e-05,-4e-05,-5e-05,3e-05,3e-05,3e-05,-1e-05,2e-05,4.0
48071.0,-4e-05,-4e-05,-5e-05,3e-05,3e-05,3e-05,-1e-05,2e-05,4.0
48072.0,-4e-05,-4e-05,-5e-05,3e-05,3e-05,3e-05,-1e-05,2e-05,4.0
48073.0,-4e-05,-4e-05,-5e-05,3e-05,3e-05,3e-05,-1e-05,2e-05,4.0
48074.0,-4e-05,-4e-05,-5e-05,3e-05,3e-05,3e-05,-1e-05,2e-05,4.0
48075.0,-4e-05,-4e-05,-5e-05,3e-05,3e-05,3e-05,-1e-05,2e-05,4.0
48076.0,-1e-05,1e-05,-4e-05,-0.00017,-0.00017,-0.00018,-0.00012,-6e-05,4.0
48077.0,-1e-05,1e-05,-4e-05,-0.00017,-0.00017,-0.00018,-0.00012,-6e-05,4.0
48078.0,-1e-05,1e-05,-4e-05,-0.00017,-0.00017,-0.00018,-0.00012,-6e-05,4.0
48079.0,-1e-05,1e-05,-4e-05,-0.00017,-0.00017,-0.00018,-0.00012,-6e-05,4.0
48080.0,-1e-05,1e-05,-4e-05,-0.00017,-0.00017,-0.00018,-0.00012,-6e-05,4.0
48081.0,-1e-05,1e-05,-4e-05,-0.00017,-0.00017,-0.00018,-0.00012,-6e-05,4.0
48082.0,-1e-05,1e-05,-4e-05,-0.00017,-0.00017,-0.00018,-0.00012,-6e-05,4.0
48083.0,-1e-05,1e-05,-4e-05,-0.00017,-0.00017,-0.00018,-0.00012,-6e-05,4.0
48084.0,-1e-05,1e-05,-4e-05,-0.00017,-0.00017,-0.00018,-0.00012,-6e-05,4.0
48085.0,-1e-05,1e-05,-4e-05,-0.00017,-0.00017,-0.00018,-0.00012,-6e-05,4.0
48086.0,-1e-05,1e-05,-4e-05,-0.00017,-0.00017,-0.00018,-0.00012,-6e-05,4.0
48088.0,-1e-05,1e-05,-4e-05,-0.00017,-0.00017,-0.00018,-0.00012,-6e-05,4.0
48089.0,-1e-05,1e-05,-4e-05,-0.00017,-0.00017,-0.00018,-0.00012,-6e-05,4.0
48090.0,-1e-05,1e-05,-4e-05,-0.00017,-0.00017,-0.00018,-0.00012,-6e-05,4.0
48091.0,-1e-05,1e-05,-4e-05,-0.00017,-0.00017,-0.00018,-0.00012,-6e-05,4.0
48092.0,-1e-05,1e-05,-4e-05,-0.00017,-0.00017,-0.00018,-0.00012,-6e-05,4.0
48093.0,-1e-05,1e-05,-4e-05,-0.00017,-0.00017,-0.00018,-0.00012,-6e-05,4.0
48094.0,-1e-05,1e-05,-4e-05,-0.00017,-0.00017,-0.00018,-0.00012,-6e-05,4.0
48095.0,-1e-05,1e-05,-4e-05,-0.00017,-0.00017,-0.00018,-0.00012,-6e-05,4.0
48096.0,-1e-05,1e-05,-4e-05,-0.00017,-0.00017,-0.00018,-0.00012,-6e-05,4.0
48097.0,-1e-05,1e-05,-4e-05,-0.00017,-0.00017,-0.00018,-0.00012,-6e-05,4.0
48098.0,-3e-05,-4e-05,-0.00012,-0.00025,-0.00034,-0.0001,-8e-05,-5e-05,4.0
48099.0,-3e-05,-4e-05,-0.00012,-0.00025,-0.00034,-0.0001,-8e-05,-5e-05,4.0
48100.0,-3e-05,-4e-05,-0.00012,-0.00025,-0.00034,-0.0001,-8e-05,-5e-05,4.0
48101.0,-3e-05,-4e-05,-0.00012,-0.00025,-0.00034,-0.0001,-8e-05,-5e-05,4.0
48102.0,-3e-05,-4e-05,-0.00012,-0.00025,-0.00034,-0.0001,-8e-05,-5e-05,4.0
48103.0,-3e-05,-4e-05,-0.00012,-0.00025,-0.00034,-0.0001,-8e-05,-5e-05,4.0
48104.0,-3e-05,-4e-05,-0.00012,-0.00025,-0.00034,-0.0001,-8e-05,-5e-05,4.0
48105.0,-1e-05,-3e-05,-4e-05,0.00012,0.00033,2e-05,-3e-05,1e-05,4.0
48106.0,-1e-05,-3e-05,-4e-05,0.00012,0.00033,2e-05,-3e-05,1e-05,4.0
48107.0,-1e-05,-3e-05,-4e-05,0.00012,0.00033,2e-05,-3e-05,1e-05,4.0
48108.0,-1e-05,-3e-05,-4e-05,0.00012,0.00033,2e-05,-3e-05,1e-05,4.0
48109.0,-1e-05,-3e-05,-4e-05,0.00012,0.00033,2e-05,-3e-05,1e-05,4.0
48110.0,-1e-05,-3e-05,-4e-05,0.00012,0.00033,2e-05,-3e-05,1e-05,4.0
48111.0,-1e-05,-3e-05,-4e-05,0.00012,0.00033,2e-05,-3e-05,1e-05,4.0
48112.0,-1e-05,-3e-05,-4e-05,0.00012,0.00033,2e-05,-3e-05,1e-05,4.0
48113.0,-1e-05,-3e-05,-4e-05,0.00012,0.00033,2e-05,-3e-05,1e-05,4.0
48114.0,-9e-05,-0.00015,-4e-05,-9e-05,-0.00026,-0.00017,-0.00011,-3e-05,4.0
48115.0,-9e-05,-0.00015,-4e-05,-9e-05,-0.00026,-0.00017,-0.00011,-3e-05,4.0
48116.0,-9e-05,-0.00015,-4e-05,-9e-05,-0.00026,-0.00017,-0.00011,-3e-05,4.0
48117.0,-9e-05,-0.00015,-4e-05,-9e-05,-0.00026,-0.00017,-0.00011,-3e-05,4.0
48118.0,-9e-05,-0.00015,-4e-05,-9e-05,-0.00026,-0.00017,-0.00011,-3e-05,4.0
48119.0,-9e-05,-0.00015,-4e-05,-9e-05,-0.00026,-0.00017,-0.00011,-3e-05,4.0
48120.0,-9e-05,-0.00015,-4e-05,-9e-05,-0.00026,-0.00017,-0.00011,-3e-05,4.0
48121.0,-9e-05,-0.00015,-4e-05,-9e-05,-0.00026,-0.00017,-0.00011,-3e-05,4.0
48122.0,-9e-05,-0.00015,-4e-05,-9e-05,-0.00026,-0.00017,-0.00011,-3e-05,4.0
48123.0,-9e-05,-0.00015,-4e-05,-9e-05,-0.00026,-0.00017,-0.00011,-3e-05,4.0
48124.0,-9e-05,-0.00015,-4e-05,-9e-05,-0.00026,-0.00017,-0.00011,-3e-05,4.0
48125.0,-9e-05,-0.00015,-4e-05,-9e-05,-0.00026,-0.00017,-0.00011,-3e-05,4.0
48126.0,-9e-05,-0.00015,-4e-05,-9e-05,-0.00026,-0.00017,-0.00011,-3e-05,4.0
48127.0,-1e-05,-2e-05,-5e-05,-8e-05,-0.00017,-0.00012,-2e-05,1e-05,4.0
48128.0,-1e-05,-2e-05,-5e-05,-8e-05,-0.00017,-0.00012,-2e-05,1e-05,4.0
48129.0,-1e-05,-2e-05,-5e-05,-8e-05,-0.00017,-0.00012,-2e-05,1e-05,4.0
48130.0,-1e-05,-2e-05,-5e-05,-8e-05,-0.00017,-0.00012,-2e-05,1e-05,4.0
48131.0,-1e-05,-2e-05,-5e-05,-8e-05,-0.00017,-0.00012,-2e-05,1e-05,4.0
48132.0,-1e-05,-2e-05,-5e-05,-8e-05,-0.00017,-0.00012,-2e-05,1e-05,4.0
48133.0,-1e-05,-2e-05,-5e-05,-8e-05,-0.00017,-0.00012,-2e-05,1e-05,4.0
48134.0,-1e-05,-2e-05,-5e-05,-8e-05,-0.00017,-0.00012,-2e-05,1e-05,4.0
48135.0,1e-05,4e-05,1e-05,2e-05,4e-05,7e-05,5e-05,-1e-05,4.0
48136.0,1e-05,4e-05,1e-05,2e-05,4e-05,7e-05,5e-05,-1e-05,4.0
48138.0,1e-05,4e-05,1e-05,2e-05,4e-05,7e-05,5e-05,-1e-05,4.0
48139.0,1e-05,4e-05,1e-05,2e-05,4e-05,7e-05,5e-05,-1e-05,4.0
48140.0,1e-05,4e-05,1e-05,2e-05,4e-05,7e-05,5e-05,-1e-05,4.0
48141.0,1e-05,4e-05,1e-05,2e-05,4e-05,7e-05,5e-05,-1e-05,4.0
48142.0,1e-05,4e-05,1e-05,2e-05,4e-05,7e-05,5e-05,-1e-05,4.0
48143.0,1e-05,4e-05,1e-05,2e-05,4e-05,7e-05,5e-05,-1e-05,4.0
48144.0,1e-05,4e-05,1e-05,2e-05,4e-05,7e-05,5e-05,-1e-05,4.0
48145.0,1e-05,4e-05,1e-05,2e-05,4e-05,7e-05,5e-05,-1e-05,4.0
48146.0,1e-05,4e-05,1e-05,2e-05,4e-05,7e-05,5e-05,-1e-05,4.0
48147.0,1e-05,4e-05,1e-05,2e-05,4e-05,7e-05,5e-05,-1e-05,4.0
48148.0,1e-05,4e-05,1e-05,2e-05,4e-05,7e-05,5e-05,-1e-05,4.0
48149.0,1e-05,4e-05,1e-05,2e-05,4e-05,7e-05,5e-05,-1e-05,4.0
48150.0,1e-05,4e-05,1e-05,2e-05,4e-05,7e-05,5e-05,-1e-05,4.0
48151.0,-4e-05,-4e-05,-0.0001,-0.00022,-8e-05,1e-05,-4e-05,-3e-05,4.0
48152.0,2e-05,2e-05,4e-05,0.00021,0.00046,0.00021,0.00013,4e-05,4.0
48153.0,2e-05,2e-05,4e-05,0.00021,0.00046,0.00021,0.00013,4e-05,4.0
48154.0,2e-05,2e-05,4e-05,0.00021,0.00046,0.00021,0.00013,4e-05,4.0
48155.0,2e-05,2e-05,4e-05,0.00021,0.00046,0.00021,0.00013,4e-05,4.0
48156.0,2e-05,2e-05,4e-05,0.00021,0.00046,0.00021,0.00013,4e-05,4.0
48157.0,2e-05,2e-05,4e-05,0.00021,0.00046,0.00021,0.00013,4e-05,4.0
48158.0,2e-05,2e-05,4e-05,0.00021,0.00046,0.00021,0.00013,4e-05,4.0
48159.0,2e-05,2e-05,4e-05,0.00021,0.00046,0.00021,0.00013,4e-05,4.0
48160.0,2e-05,2e-05,4e-05,0.00021,0.00046,0.00021,0.00013,4e-05,4.0
48161.0,2e-05,2e-05,4e-05,0.00021,0.00046,0.00021,0.00013,4e-05,4.0
48162.0,2e-05,2e-05,4e-05,0.00021,0.00046,0.00021,0.00013,4e-05,4.0
48163.0,2e-05,2e-05,4e-05,0.00021,0.00046,0.00021,0.00013,4e-05,4.0
48164.0,2e-05,2e-05,4e-05,0.00021,0.00046,0.00021,0.00013,4e-05,4.0
48165.0,2e-05,2e-05,4e-05,0.00021,0.00046,0.00021,0.00013,4e-05,4.0
48166.0,2e-05,2e-05,4e-05,0.00021,0.00046,0.00021,0.00013,4e-05,4.0
48167.0,2e-05,2e-05,4e-05,0.00021,0.00046,0.00021,0.00013,4e-05,4.0
48168.0,2e-05,2e-05,4e-05,0.00021,0.00046,0.00021,0.00013,4e-05,4.0
48169.0,2e-05,2e-05,4e-05,0.00021,0.00046,0.00021,0.00013,4e-05,4.0
48170.0,2e-05,2e-05,4e-05,0.00021,0.00046,0.00021,0.00013,4e-05,4.0
48171.0,2e-05,2e-05,4e-05,0.00021,0.00046,0.00021,0.00013,4e-05,4.0
48172.0,2e-05,2e-05,4e-05,0.00021,0.00046,0.00021,0.00013,4e-05,4.0
48173.0,2e-05,2e-05,4e-05,0.00021,0.00046,0.00021,0.00013,4e-05,4.0
48174.0,-5e-05,-5e-05,-8e-05,-0.0001,-0.00043,-0.00027,-9e-05,-0.0001,4.0
48175.0,5e-05,3e-05,1e-05,-2e-05,1e-05,0.00029,0.00018,0.00014,4.0
48176.0,5e-05,3e-05,1e-05,-2e-05,1e-05,0.00029,0.00018,0.00014,4.0
48177.0,5e-05,3e-05,1e-05,-2e-05,1e-05,0.00029,0.00018,0.00014,4.0
48178.0,5e-05,3e-05,1e-05,-2e-05,1e-05,0.00029,0.00018,0.00014,4.0
48179.0,5e-05,3e-05,1e-05,-2e-05,1e-05,0.00029,0.00018,0.00014,4.0
48180.0,5e-05,3e-05,1e-05,-2e-05,1e-05,0.00029,0.00018,0.00014,4.0
48181.0,5e-05,3e-05,1e-05,-2e-05,1e-05,0.00029,0.00018,0.00014,4.0
48182.0,5e-05,3e-05,1e-05,-2e-05,1e-05,0.00029,0.00018,0.00014,4.0
48183.0,5e-05,3e-05,1e-05,-2e-05,1e-05,0.00029,0.00018,0.00014,4.0
48184.0,5e-05,3e-05,1e-05,-2e-05,1e-05,0.00029,0.00018,0.00014,4.0
48185.0,5e-05,3e-05,1e-05,-2e-05,1e-05,0.00029,0.00018,0.00014,4.0
48187.0,-4e-05,-7e-05,-4e-05,-0.00011,-5e-05,3e-05,-3e-05,1e-05,4.0
48190.0,-4e-05,-7e-05,-4e-05,-0.00011,-5e-05,3e-05,-3e-05,1e-05,4.0
48191.0,-4e-05,-7e-05,-4e-05,-0.00011,-5e-05,3e-05,-3e-05,1e-05,4.0
48192.0,-4e-05,-7e-05,-4e-05,-0.00011,-5e-05,3e-05,-3e-05,1e-05,4.0
48193.0,-4e-05,-7e-05,-4e-05,-0.00011,-5e-05,3e-05,-3e-05,1e-05,4.0
48194.0,-4e-05,-7e-05,-4e-05,-0.00011,-5e-05,3e-05,-3e-05,1e-05,4.0
48195.0,-4e-05,-7e-05,-4e-05,-0.00011,-5e-05,3e-05,-3e-05,1e-05,4.0
48196.0,-4e-05,-7e-05,-4e-05,-0.00011,-5e-05,3e-05,-3e-05,1e-05,4.0
48197.0,-4e-05,-7e-05,-4e-05,-0.00011,-5e-05,3e-05,-3e-05,1e-05,4.0
48198.0,-4e-05,-7e-05,-4e-05,-0.00011,-5e-05,3e-05,-3e-05,1e-05,4.0
48199.0,-4e-05,-7e-05,-4e-05,-0.00011,-5e-05,3e-05,-3e-05,1e-05,4.0
48200.0,-4e-05,-7e-05,-4e-05,-0.00011,-5e-05,3e-05,-3e-05,1e-05,4.0
48201.0,-4e-05,-7e-05,-4e-05,-0.00011,-5e-05,3e-05,-3e-05,1e-05,4.0
48202.0,-4e-05,-7e-05,-4e-05,-0.00011,-5e-05,3e-05,-3e-05,1e-05,4.0
48203.0,1e-05,6e-05,-1e-05,-0.00017,-0.0002,-0.00012,-0.00012,-3e-05,4.0
48204.0,1e-05,6e-05,-1e-05,-0.00017,-0.0002,-0.00012,-0.00012,-3e-05,4.0
48205.0,1e-05,6e-05,-1e-05,-0.00017,-0.0002,-0.00012,-0.00012,-3e-05,4.0
48206.0,1e-05,6e-05,-1e-05,-0.00017,-0.0002,-0.00012,-0.00012,-3e-05,4.0
48207.0,1e-05,6e-05,-1e-05,-0.00017,-0.0002,-0.00012,-0.00012,-3e-05,4.0
48208.0,1e-05,6e-05,-1e-05,-0.00017,-0.0002,-0.00012,-0.00012,-3e-05,4.0
48209.0,1e-05,6e-05,-1e-05,-0.00017,-0.0002,-0.00012,-0.00012,-3e-05,4.0
48210.0,1e-05,6e-05,-1e-05,-0.00017,-0.0002,-0.00012,-0.00012,-3e-05,4.0
48211.0,-6e-05,0.0,-3e-05,6e-05,0.00028,0.00023,-1e-05,-0.0001,4.0
48212.0,0.0,3e-05,4e-05,0.00022,0.0003,5e-05,1e-05,-3e-05,4.0
48213.0,0.0,3e-05,4e-05,0.00022,0.0003,5e-05,1e-05,-3e-05,4.0
48214.0,0.0,3e-05,4e-05,0.00022,0.0003,5e-05,1e-05,-3e-05,4.0
48215.0,0.0,3e-05,4e-05,0.00022,0.0003,5e-05,1e-05,-3e-05,4.0
48216.0,0.0,3e-05,4e-05,0.00022,0.0003,5e-05,1e-05,-3e-05,4.0
48217.0,0.0,3e-05,4e-05,0.00022,0.0003,5e-05,1e-05,-3e-05,4.0
48218.0,0.0,3e-05,4e-05,0.00022,0.0003,5e-05,1e-05,-3e-05,4.0
48219.0,0.0,3e-05,4e-05,0.00022,0.0003,5e-05,1e-05,-3e-05,4.0
48220.0,0.0,3e-05,4e-05,0.00022,0.0003,5e-05,1e-05,-3e-05,4.0
48221.0,0.0,3e-05,4e-05,0.00022,0.0003,5e-05,1e-05,-3e-05,4.0
48222.0,0.0,3e-05,4e-05,0.00022,0.0003,5e-05,1e-05,-3e-05,4.0
48223.0,0.0,3e-05,4e-05,0.00022,0.0003,5e-05,1e-05,-3e-05,4.0
48224.0,0.0,3e-05,4e-05,0.00022,0.0003,5e-05,1e-05,-3e-05,4.0
48225.0,0.0,3e-05,4e-05,0.00022,0.0003,5e-05,1e-05,-3e-05,4.0
48226.0,0.0,3e-05,4e-05,0.00022,0.0003,5e-05,1e-05,-3e-05,4.0
48227.0,0.0,3e-05,4e-05,0.00022,0.0003,5e-05,1e-05,-3e-05,4.0
48228.0,0.0,3e-05,4e-05,0.00022,0.0003,5e-05,1e-05,-3e-05,4.0
48229.0,0.0,3e-05,4e-05,0.00022,0.0003,5e-05,1e-05,-3e-05,4.0
48230.0,0.0,3e-05,4e-05,0.00022,0.0003,5e-05,1e-05,-3e-05,4.0
48231.0,0.0,3e-05,4e-05,0.00022,0.0003,5e-05,1e-05,-3e-05,4.0
48232.0,0.0,3e-05,4e-05,0.00022,0.0003,5e-05,1e-05,-3e-05,4.0
48233.0,0.0,3e-05,4e-05,0.00022,0.0003,5e-05,1e-05,-3e-05,4.0
48234.0,3e-05,8e-05,5e-05,1e-05,-0.00013,-9e-05,-3e-05,-2e-05,4.0
48235.0,1e-05,-2e-05,-2e-05,-0.00021,-0.00036,-0.00013,-1e-05,2e-05,4.0
